UnixTimestamp;Microseconds;MilliAmpere;BaseValue
1724249936.165;200;50.00
1724249936.213;200;50.00
1724249936.263;200;50.00
1724249936.313;200;50.00
1724249936.364;200;50.00
1724249936.413;200;50.00
1724249936.463;200;50.00
1724249936.514;200;50.00
1724249936.564;200;50.00
1724249936.613;200;50.00
1724249936.663;200;50.00
1724249936.713;200;50.00
1724249936.763;200;50.00
1724249936.813;200;50.00
1724249936.863;200;50.00
1724249936.913;200;50.00
1724249936.963;200;50.00
1724249937.013;200;50.00
1724249937.063;200;50.00
1724249937.113;200;50.00
1724249937.163;200;50.00
1724249937.214;200;50.00
1724249937.264;200;50.00
1724249937.313;200;50.00
1724249937.363;200;50.00
1724249937.413;200;50.00
1724249937.463;200;50.00
1724249937.513;200;50.00
1724249937.563;200;50.00
1724249937.614;200;50.00
1724249937.664;200;50.00
1724249937.714;200;50.00
1724249937.764;200;50.00
1724249937.814;200;50.00
1724249937.864;200;50.00
1724249937.914;200;50.00
1724249937.965;200;50.00
1724249938.015;200;50.00
1724249938.065;200;50.00
1724249938.115;200;50.00
1724249938.165;200;50.00
1724249938.214;200;50.00
1724249938.264;200;50.00
1724249947.003;400;17.00;4553.00
1724249947.052;400;18.00;95829.00
1724249947.102;400;19.00;5.00
1724249947.152;400;19.00;5.00
1724249947.202;400;19.00;5.00
1724249947.252;400;19.00;5.00
1724249947.302;400;18.00;50663.00
1724249947.352;400;18.00;50663.00
1724249947.402;400;18.00;54253.00
1724249947.452;400;18.00;77757.00
1724249947.502;400;18.00;67933.00
1724249947.552;400;18.00;67933.00
1724249947.602;400;18.00;90726.00
1724249947.652;400;18.00;14611.00
1724249947.702;400;18.00;14611.00
1724249947.752;400;18.00;14611.00
1724249947.802;400;18.00;22208.00
1724249947.852;400;18.00;22208.00
1724249947.902;400;18.00;22208.00
1724249947.952;400;18.00;67074.00
1724249948.003;400;19.00;32328.00
1724249948.053;400;19.00;32328.00
1724249948.103;400;18.00;87346.00
1724249948.153;400;18.00;58289.00
1724249948.203;400;18.00;58289.00
1724249948.253;400;18.00;58289.00
1724249948.303;400;18.00;45093.00
1724249948.353;400;18.00;45848.00
1724249948.403;400;18.00;45848.00
1724249948.453;400;18.00;45848.00
1724249948.502;400;18.00;22026.00
1724249948.552;400;18.00;22026.00
1724249948.603;400;18.00;22026.00
1724249948.654;400;18.00;12656.00
1724249948.704;400;18.00;71243.00
1724249948.754;400;18.00;71243.00
1724249948.804;400;18.00;43462.00
1724249948.854;400;18.00;30868.00
1724249948.904;400;18.00;30868.00
1724249948.954;400;18.00;30868.00
1724249949.004;400;18.00;40214.00
1724249949.054;400;18.00;2723.00
1724249949.104;400;18.00;2723.00
1724249949.154;400;18.00;2723.00
1724249949.203;400;18.00;64178.00
1724249949.253;400;18.00;64178.00
1724249949.303;400;18.00;64178.00
1724249949.355;400;18.00;6021.00
1724249949.404;400;18.00;60684.00
1724249949.453;400;18.00;60684.00
1724249949.503;400;18.00;35238.00
1724249949.553;400;19.00;5.00
1724249949.603;400;19.00;5.00
1724249949.653;400;19.00;5.00
1724249949.704;400;19.00;28463.00
1724249949.754;400;19.00;28463.00
1724249949.804;400;19.00;28463.00
1724249949.854;400;19.00;5.00
1724249949.904;400;18.00;83439.00
1724249949.954;400;18.00;83439.00
1724249950.004;400;18.00;17456.00
1724249950.054;400;18.00;67779.00
1724249950.104;400;18.00;67779.00
1724249950.154;400;18.00;67779.00
1724249950.203;400;18.00;99971.00
1724249950.253;400;18.00;99971.00
1724249950.303;400;18.00;99971.00
1724249950.354;400;19.00;4388.00
1724249950.404;400;18.00;4534.00
1724249950.454;400;18.00;4534.00
1724249950.504;400;18.00;25039.00
1724249950.554;400;18.00;25039.00
1724249950.604;400;18.00;25039.00
1724249950.654;400;18.00;2997.00
1724249950.704;400;18.00;2997.00
1724249950.754;400;18.00;2997.00
1724249950.804;400;19.00;3453.00
1724249950.854;400;19.00;3453.00
1724249950.904;400;19.00;3453.00
1724249950.954;400;19.00;19223.00
1724249951.004;400;19.00;28894.00
1724249951.054;400;19.00;28894.00
1724249951.104;400;18.00;77469.00
1724249951.154;400;18.00;31517.00
1724249951.204;400;18.00;31517.00
1724249951.254;400;18.00;31517.00
1724249951.304;400;18.00;4152.00
1724249951.355;400;18.00;34857.00
1724249951.405;400;18.00;34857.00
1724249951.455;400;18.00;34857.00
1724249951.505;400;18.00;69685.00
1724249951.555;400;18.00;9184.00
1724249951.605;400;18.00;9184.00
1724249951.655;400;18.00;9184.00
1724249951.705;400;18.00;23116.00
1724249951.755;400;18.00;24317.00
1724249951.805;400;18.00;24317.00
1724249951.855;400;18.00;9317.00
1724249951.905;400;18.00;42009.00
1724249951.955;400;18.00;42009.00
1724249952.005;400;18.00;42009.00
1724249952.056;400;18.00;12163.00
1724249958.723;400;19.00;5.00
1724249958.773;400;18.00;47976.00
1724249958.822;400;18.00;66992.00
1724249958.872;400;18.00;66992.00
1724249958.922;400;18.00;59886.00
1724249958.972;400;18.00;10038.00
1724249959.022;400;18.00;10038.00
1724249959.072;400;18.00;10038.00
1724249959.122;400;18.00;60134.00
1724249959.172;400;17.00;65381.00
1724249959.223;400;17.00;65381.00
1724249959.273;400;18.00;3589.00
1724249959.322;400;18.00;27217.00
1724249959.372;400;18.00;27217.00
1724249959.423;400;18.00;27217.00
1724249959.473;400;18.00;28866.00
1724249959.523;400;18.00;15209.00
1724249959.573;400;18.00;15209.00
1724249959.624;400;17.00;44874.00
1724249959.674;400;19.00;5.00
1724249959.723;400;19.00;5.00
1724249959.774;400;19.00;5.00
1724249959.825;400;19.00;20821.00
1724249959.875;400;19.00;33851.00
1724249959.925;400;19.00;33851.00
1724249959.975;400;19.00;13047.00
1724249960.025;400;18.00;47051.00
1724249960.075;400;18.00;47051.00
1724249960.125;400;18.00;47051.00
1724249960.175;400;18.00;9736.00
1724249960.224;400;18.00;30102.00
1724249960.274;400;18.00;30102.00
1724249960.324;400;18.00;42938.00
1724249960.374;400;18.00;42938.00
1724249960.424;400;18.00;42938.00
1724249960.474;400;18.00;5667.00
1724249960.524;400;18.00;85966.00
1724249960.574;400;18.00;85966.00
1724249960.624;400;19.00;5.00
1724249960.674;400;19.00;22651.00
1724249960.724;400;19.00;22651.00
1724249960.775;400;19.00;22651.00
1724249960.824;400;18.00;48595.00
1724249960.875;400;18.00;48595.00
1724249960.925;400;18.00;12713.00
1724249960.975;400;18.00;12713.00
1724249961.025;400;18.00;14573.00
1724249961.075;400;18.00;52634.00
1724249961.125;400;18.00;52634.00
1724249961.175;400;18.00;52634.00
1724249961.225;400;18.00;48231.00
1724249961.275;400;18.00;33429.00
1724249961.326;400;18.00;33429.00
1724249961.376;400;18.00;33429.00
1724249961.426;400;18.00;5242.00
1724249961.476;400;18.00;5242.00
1724249961.526;400;18.00;5242.00
1724249961.576;400;17.00;87074.00
1724249961.626;400;18.00;30447.00
1724249961.675;400;18.00;30447.00
1724249961.725;400;18.00;30447.00
1724249961.775;400;18.00;32978.00
1724249961.826;400;18.00;25969.00
1724249961.876;400;18.00;25969.00
1724249961.926;400;19.00;5.00
1724249961.976;400;18.00;29221.00
1724249962.026;400;18.00;29221.00
1724249962.076;400;18.00;29221.00
1724249962.125;400;19.00;47975.00
1724249962.175;400;19.00;47975.00
1724249962.226;400;19.00;47975.00
1724249962.276;400;18.00;51564.00
1724249962.326;400;18.00;80112.00
1724249962.376;400;18.00;80112.00
1724249962.426;400;18.00;44623.00
1724249962.476;400;18.00;44623.00
1724249962.527;400;18.00;44623.00
1724249962.577;400;18.00;44623.00
1724249962.627;400;18.00;92287.00
1724249962.677;400;19.00;26625.00
1724249962.727;400;19.00;26625.00
1724249962.777;400;18.00;80251.00
1724249962.827;400;18.00;6321.00
1724249962.877;400;18.00;6321.00
1724249962.927;400;18.00;6321.00
1724249962.976;400;18.00;36875.00
1724249963.026;400;19.00;2858.00
1724249963.076;400;19.00;2858.00
1724249963.127;400;18.00;30023.00
1724249963.177;400;18.00;73096.00
1724249963.227;400;18.00;73096.00
1724249963.277;400;18.00;73096.00
1724249963.327;400;18.00;63375.00
1724249963.377;400;18.00;63375.00
1724249963.427;400;18.00;63375.00
1724249963.476;400;18.00;55668.00
1724249963.526;400;19.00;5.00
1724249963.576;400;19.00;5.00
1724249963.626;400;18.00;6824.00
1724249963.676;400;19.00;49986.00
1724249963.726;400;19.00;49986.00
1724249963.776;400;19.00;49986.00
1724249963.826;400;19.00;5.00
1724249970.237;400;19.00;5.00
1724249970.287;400;18.00;13553.00
1724249970.338;400;18.00;13553.00
1724249970.388;400;18.00;13553.00
1724249970.438;400;18.00;46419.00
1724249970.488;400;18.00;4473.00
1724249970.538;400;18.00;4473.00
1724249970.587;400;18.00;4473.00
1724249970.638;400;18.00;54041.00
1724249970.688;400;18.00;54041.00
1724249970.738;400;18.00;54041.00
1724249970.788;400;18.00;21025.00
1724249970.838;400;18.00;74715.00
1724249970.888;400;18.00;74715.00
1724249970.938;400;18.00;71312.00
1724249970.988;400;18.00;90612.00
1724249971.038;400;18.00;90612.00
1724249971.088;400;18.00;90612.00
1724249971.137;400;19.00;41652.00
1724249971.188;400;19.00;48427.00
1724249971.239;400;19.00;48427.00
1724249971.288;400;19.00;5.00
1724249971.339;400;18.00;334.00
1724249971.389;400;18.00;334.00
1724249971.439;400;17.00;64768.00
1724249971.490;400;18.00;22918.00
1724249971.540;400;18.00;22918.00
1724249971.590;400;18.00;22918.00
1724249971.640;400;18.00;5303.00
1724249971.692;400;18.00;99607.00
1724249971.740;400;19.00;38841.00
1724249971.790;400;19.00;38841.00
1724249971.839;400;18.00;45666.00
1724249971.890;400;18.00;6248.00
1724249971.939;400;18.00;6248.00
1724249971.989;400;18.00;6248.00
1724249972.039;400;18.00;3715.00
1724249972.089;400;18.00;3715.00
1724249972.140;400;18.00;3715.00
1724249972.190;400;18.00;38638.00
1724249972.240;400;18.00;94805.00
1724249972.290;400;18.00;94805.00
1724249972.340;400;18.00;67696.00
1724249972.390;400;18.00;40357.00
1724249972.440;400;18.00;40357.00
1724249972.490;400;18.00;40357.00
1724249972.541;400;18.00;95424.00
1724249972.590;400;18.00;95424.00
1724249972.640;400;18.00;95424.00
1724249972.690;400;18.00;517.00
1724249972.740;400;17.00;89284.00
1724249972.790;400;17.00;89284.00
1724249972.933;400;17.00;89284.00
1724249972.934;400;17.00;89284.00
1724249972.941;400;17.00;89284.00
1724249972.991;400;18.00;34663.00
1724249973.040;400;18.00;34663.00
1724249973.090;400;18.00;34663.00
1724249973.140;400;18.00;9456.00
1724249973.190;400;18.00;30738.00
1724249973.240;400;18.00;97677.00
1724249973.290;400;18.00;97677.00
1724249973.340;400;18.00;57447.00
1724249973.390;400;18.00;1836.00
1724249973.440;400;18.00;1836.00
1724249973.490;400;18.00;1836.00
1724249973.540;400;18.00;2017.00
1724249973.591;400;18.00;19222.00
1724249973.641;400;18.00;19222.00
1724249973.691;400;18.00;19222.00
1724249973.741;400;19.00;34831.00
1724249973.791;400;19.00;34831.00
1724249973.841;400;19.00;34831.00
1724249973.891;400;18.00;21018.00
1724249973.941;400;18.00;21018.00
1724249973.991;400;18.00;21018.00
1724249974.041;400;19.00;26027.00
1724249974.091;400;19.00;26027.00
1724249974.141;400;19.00;26027.00
1724249974.191;400;18.00;3984.00
1724249974.241;400;18.00;3984.00
1724249974.291;400;18.00;3984.00
1724249974.341;400;18.00;43567.00
1724249974.391;400;18.00;43567.00
1724249974.441;400;18.00;43567.00
1724249974.491;400;18.00;84976.00
1724249974.541;400;18.00;6304.00
1724249974.591;400;18.00;6304.00
1724249974.641;400;18.00;6304.00
1724249974.691;400;18.00;84347.00
1724249974.741;400;18.00;35896.00
1724249974.791;400;18.00;35896.00
1724249974.841;400;18.00;35896.00
1724249974.891;400;18.00;12887.00
1724249974.941;400;19.00;5.00
1724249974.991;400;19.00;5.00
1724249975.042;400;18.00;81408.00
1724249975.092;400;18.00;61252.00
1724249975.141;400;18.00;61252.00
1724249975.192;400;19.00;24214.00
1724249975.242;400;18.00;29039.00
1724249975.292;400;18.00;29039.00
1724249975.342;400;18.00;29039.00
1724249975.393;400;19.00;38097.00
