UnixTimestamp;Microseconds;MilliAmpere;BaseValue
1724250207.546;200;50.00
1724250207.594;200;50.00
1724250207.643;200;50.00
1724250207.693;200;50.00
1724250207.743;200;50.00
1724250207.794;200;50.00
1724250207.844;200;50.00
1724250207.893;200;50.00
1724250207.943;200;50.00
1724250207.994;200;50.00
1724250208.045;200;50.00
1724250208.094;200;50.00
1724250208.144;200;50.00
1724250208.194;200;50.00
1724250208.244;200;50.00
1724250208.295;200;50.00
1724250208.345;200;50.00
1724250208.395;200;50.00
1724250208.445;200;50.00
1724250208.495;200;50.00
1724250208.545;200;50.00
1724250208.595;200;50.00
1724250208.645;200;50.00
1724250208.694;200;50.00
1724250208.744;200;50.00
1724250208.794;200;50.00
1724250208.844;200;50.00
1724250208.896;200;50.00
1724250208.946;200;50.00
1724250216.000;400;94.00;89999.00
1724250216.049;400;89.00;79942.00
1724250216.099;400;89.00;79942.00
1724250216.150;400;89.00;79942.00
1724250216.200;400;93.00;59072.00
1724250216.250;400;90.00;77912.00
1724250216.300;400;90.00;77912.00
1724250216.350;400;90.00;77912.00
1724250216.400;400;94.00;89999.00
1724250216.450;400;88.00;93806.00
1724250216.499;400;88.00;93806.00
1724250216.549;400;88.00;93806.00
1724250216.599;400;91.00;8864.00
1724250216.650;400;92.00;5184.00
1724250216.700;400;92.00;5184.00
1724250216.750;400;89.00;73406.00
1724250216.801;400;90.00;49455.00
1724250216.851;400;90.00;49455.00
1724250216.901;400;90.00;49455.00
1724250216.951;400;88.00;79868.00
1724250217.000;400;94.00;89999.00
1724250217.050;400;94.00;89999.00
1724250217.100;400;94.00;89999.00
1724250217.150;400;94.00;26525.00
1724250217.200;400;94.00;26525.00
1724250217.250;400;94.00;26525.00
1724250217.301;400;94.00;33641.00
1724250217.351;400;94.00;25731.00
1724250217.401;400;94.00;25731.00
1724250217.451;400;94.00;25731.00
1724250217.501;400;89.00;16406.00
1724250217.551;400;94.00;77638.00
1724250217.601;400;94.00;77638.00
1724250217.651;400;93.00;97958.00
1724250217.701;400;93.00;97958.00
1724250217.751;400;88.00;212.00
1724250217.801;400;88.00;212.00
1724250217.852;400;88.00;212.00
1724250217.901;400;90.00;5042.00
1724250217.951;400;89.00;12714.00
1724250218.001;400;89.00;12714.00
1724250218.051;400;89.00;12714.00
1724250218.102;400;89.00;75118.00
1724250218.152;400;93.00;3336.00
1724250218.201;400;93.00;3336.00
1724250218.251;400;93.00;3336.00
1724250218.301;400;91.00;4492.00
1724250218.352;400;90.00;50751.00
1724250218.401;400;90.00;50751.00
1724250218.453;400;90.00;50751.00
1724250218.502;400;94.00;89999.00
1724250218.552;400;92.00;43789.00
1724250218.602;400;92.00;43789.00
1724250218.652;400;92.00;43789.00
1724250218.702;400;90.00;3814.00
1724250218.752;400;94.00;89999.00
1724250218.802;400;94.00;89999.00
1724250218.852;400;94.00;89999.00
1724250218.903;400;94.00;89999.00
1724250218.953;400;90.00;5.00
1724250219.003;400;90.00;5.00
1724250219.053;400;90.00;5.00
1724250219.103;400;89.00;35853.00
1724250219.153;400;94.00;65222.00
1724250219.204;400;94.00;65222.00
1724250219.254;400;94.00;65222.00
1724250219.304;400;91.00;14317.00
1724250219.354;400;89.00;33707.00
1724250219.404;400;89.00;33707.00
1724250219.453;400;89.00;33707.00
1724250219.503;400;91.00;52237.00
1724250219.553;400;91.00;11174.00
1724250219.603;400;91.00;11174.00
1724250219.653;400;91.00;11174.00
1724250219.703;400;88.00;99045.00
1724250219.754;400;89.00;33842.00
1724250219.804;400;89.00;33842.00
1724250219.854;400;89.00;33842.00
1724250219.904;400;90.00;54981.00
1724250219.953;400;91.00;91924.00
1724250220.004;400;91.00;91924.00
1724250220.054;400;94.00;89999.00
1724250220.104;400;89.00;514.00
1724250220.154;400;89.00;514.00
1724250220.204;400;89.00;514.00
1724250220.254;400;92.00;30762.00
1724250220.304;400;91.00;56277.00
1724250220.354;400;91.00;56277.00
1724250220.405;400;91.00;56277.00
1724250220.455;400;94.00;89999.00
1724250220.505;400;89.00;49712.00
1724250220.555;400;89.00;49712.00
1724250220.605;400;89.00;49712.00
1724250220.655;400;91.00;84216.00
1724250220.705;400;94.00;89999.00
1724250220.755;400;94.00;89999.00
1724250220.804;400;88.00;62512.00
1724250220.854;400;94.00;15363.00
1724250220.904;400;94.00;15363.00
1724250220.954;400;94.00;15363.00
1724250221.004;400;93.00;9555.00
1724250221.054;400;94.00;89999.00
1724250221.104;400;94.00;89999.00
1724250221.155;400;90.00;604.00
1724250221.205;400;94.00;89999.00
1724250221.255;400;94.00;483.00
1724250221.305;400;94.00;483.00
1724250221.355;400;93.00;84882.00
1724250221.404;400;86.00;91635.00
1724250221.455;400;86.00;91635.00
1724250221.505;400;86.00;91635.00
1724250221.555;400;91.00;40634.00
1724250228.776;400;94.00;89999.00
1724250228.826;400;93.00;3687.00
1724250228.876;400;90.00;5267.00
1724250228.925;400;90.00;5267.00
1724250228.975;400;90.00;5267.00
1724250229.026;400;89.00;27154.00
1724250229.076;400;89.00;5006.00
1724250229.126;400;89.00;5006.00
1724250229.176;400;89.00;5006.00
1724250229.226;400;88.00;98397.00
1724250229.276;400;90.00;45353.00
1724250229.327;400;90.00;45353.00
1724250229.377;400;89.00;90199.00
1724250229.427;400;89.00;72777.00
1724250229.477;400;85.00;64095.00
1724250229.527;400;85.00;64095.00
1724250229.577;400;94.00;89999.00
1724250229.627;400;90.00;49614.00
1724250229.677;400;90.00;49614.00
1724250229.726;400;90.00;49614.00
1724250229.777;400;88.00;12213.00
1724250229.827;400;91.00;28817.00
1724250229.877;400;91.00;28817.00
1724250229.927;400;91.00;28817.00
1724250229.976;400;88.00;49179.00
1724250230.026;400;88.00;49179.00
1724250230.076;400;88.00;49179.00
1724250230.126;400;89.00;84258.00
1724250230.176;400;89.00;8942.00
1724250230.226;400;89.00;8942.00
1724250230.276;400;89.00;8942.00
1724250230.327;400;94.00;89999.00
1724250230.377;400;94.00;53112.00
1724250230.427;400;94.00;53112.00
1724250230.476;400;94.00;53112.00
1724250230.526;400;89.00;12782.00
1724250230.576;400;89.00;23296.00
1724250230.626;400;89.00;23296.00
1724250230.676;400;94.00;31007.00
1724250230.726;400;88.00;50494.00
1724250230.776;400;88.00;50494.00
1724250230.826;400;88.00;50494.00
1724250230.877;400;91.00;74623.00
1724250230.927;400;88.00;72978.00
1724250230.977;400;88.00;72978.00
1724250231.027;400;88.00;72978.00
1724250231.077;400;91.00;56596.00
1724250231.127;400;93.00;11872.00
1724250231.177;400;93.00;11872.00
1724250231.227;400;93.00;11872.00
1724250231.277;400;91.00;5206.00
1724250231.327;400;91.00;5206.00
1724250231.377;400;90.00;65979.00
1724250231.427;400;90.00;65979.00
1724250231.477;400;90.00;65979.00
1724250231.527;400;85.00;12994.00
1724250231.578;400;90.00;43721.00
1724250231.628;400;90.00;43721.00
1724250231.678;400;90.00;43721.00
1724250231.728;400;88.00;50934.00
1724250231.778;400;90.00;9964.00
1724250231.828;400;90.00;9964.00
1724250231.877;400;90.00;9964.00
1724250231.927;400;90.00;49363.00
1724250231.978;400;94.00;89999.00
1724250232.028;400;94.00;89999.00
1724250232.078;400;94.00;89999.00
1724250232.128;400;87.00;85847.00
1724250232.178;400;92.00;8546.00
1724250232.228;400;92.00;8546.00
1724250232.278;400;86.00;78718.00
1724250232.328;400;94.00;89999.00
1724250232.378;400;94.00;89999.00
1724250232.428;400;94.00;89999.00
1724250232.478;400;92.00;3641.00
1724250232.528;400;91.00;16065.00
1724250232.577;400;91.00;16065.00
1724250232.627;400;91.00;16065.00
1724250232.678;400;91.00;16065.00
1724250232.727;400;94.00;40635.00
1724250232.777;400;94.00;89999.00
1724250232.827;400;94.00;89999.00
1724250232.877;400;92.00;42866.00
1724250232.927;400;85.00;53482.00
1724250232.978;400;93.00;47738.00
1724250233.028;400;93.00;47738.00
1724250233.078;400;93.00;47738.00
1724250233.128;400;90.00;89417.00
1724250233.178;400;89.00;49541.00
1724250233.228;400;89.00;49541.00
1724250233.278;400;89.00;49541.00
1724250233.328;400;91.00;44993.00
1724250233.378;400;94.00;89999.00
1724250233.428;400;94.00;89999.00
1724250233.478;400;94.00;89999.00
1724250233.528;400;90.00;42822.00
1724250233.578;400;94.00;2134.00
1724250233.628;400;94.00;2134.00
1724250233.678;400;90.00;48171.00
1724250233.728;400;90.00;43409.00
1724250233.778;400;90.00;43409.00
1724250233.828;400;90.00;43409.00
1724250233.877;400;92.00;8696.00
1724250233.927;400;86.00;97424.00
1724250233.977;400;86.00;97424.00
1724250234.027;400;86.00;97424.00
1724250234.077;400;88.00;83218.00
1724250234.127;400;88.00;83218.00
1724250234.177;400;88.00;83218.00
1724250234.228;400;88.00;82533.00
1724250234.278;400;90.00;38861.00
1724250234.328;400;90.00;38861.00
1724250234.378;400;90.00;38861.00
1724250234.428;400;90.00;80804.00
1724250241.647;400;92.00;43764.00
1724250241.697;400;94.00;89999.00
1724250241.747;400;94.00;89999.00
1724250241.797;400;88.00;62439.00
1724250241.848;400;89.00;40536.00
1724250241.898;400;89.00;40536.00
1724250241.948;400;89.00;40536.00
1724250241.998;400;89.00;88127.00
1724250242.047;400;91.00;19189.00
1724250242.097;400;91.00;19189.00
1724250242.147;400;91.00;19189.00
1724250242.197;400;94.00;89999.00
1724250242.248;400;89.00;78199.00
1724250242.298;400;89.00;78199.00
1724250242.348;400;89.00;78199.00
1724250242.397;400;89.00;58031.00
1724250242.448;400;90.00;66829.00
1724250242.497;400;90.00;66829.00
1724250242.547;400;90.00;66829.00
1724250242.597;400;90.00;40829.00
1724250242.647;400;88.00;53697.00
1724250242.697;400;88.00;53697.00
1724250242.747;400;88.00;53697.00
1724250242.797;400;90.00;18938.00
1724250242.847;400;89.00;29317.00
1724250242.897;400;89.00;29317.00
1724250242.947;400;89.00;29317.00
1724250242.997;400;89.00;5069.00
1724250243.047;400;91.00;17825.00
1724250243.097;400;91.00;17825.00
1724250243.147;400;91.00;17825.00
1724250243.197;400;91.00;75302.00
1724250243.247;400;91.00;75302.00
1724250243.297;400;91.00;75302.00
1724250243.347;400;89.00;63234.00
1724250243.397;400;94.00;4604.00
1724250243.448;400;94.00;4604.00
1724250243.498;400;90.00;25632.00
1724250243.548;400;90.00;99926.00
1724250243.598;400;90.00;99926.00
1724250243.648;400;90.00;99926.00
1724250243.699;400;90.00;69897.00
1724250243.749;400;90.00;44026.00
1724250243.799;400;90.00;44026.00
1724250243.850;400;90.00;44026.00
1724250243.900;400;94.00;8141.00
1724250243.950;400;94.00;8141.00
1724250244.000;400;94.00;8141.00
1724250244.050;400;94.00;8141.00
1724250244.100;400;92.00;14726.00
1724250244.151;400;92.00;14726.00
1724250244.201;400;92.00;14726.00
1724250244.251;400;91.00;67453.00
1724250244.301;400;91.00;67453.00
1724250244.351;400;89.00;3342.00
1724250244.401;400;89.00;3342.00
1724250244.451;400;89.00;3342.00
1724250244.501;400;93.00;5961.00
1724250244.551;400;87.00;91586.00
1724250244.601;400;87.00;91586.00
1724250244.651;400;87.00;91586.00
1724250244.701;400;88.00;93537.00
1724250244.751;400;94.00;89999.00
1724250244.801;400;94.00;81441.00
1724250244.851;400;94.00;81441.00
1724250244.903;400;89.00;19157.00
1724250244.953;400;88.00;64774.00
1724250245.003;400;88.00;83891.00
1724250245.053;400;88.00;83891.00
1724250245.103;400;93.00;79509.00
1724250245.153;400;89.00;29868.00
1724250245.203;400;94.00;17759.00
1724250245.253;400;94.00;17759.00
1724250245.303;400;94.00;17759.00
1724250245.353;400;94.00;27161.00
1724250245.403;400;90.00;74422.00
1724250245.453;400;90.00;74422.00
1724250245.503;400;87.00;58324.00
1724250245.553;400;94.00;89999.00
1724250245.603;400;93.00;86502.00
1724250245.653;400;93.00;86502.00
1724250245.703;400;89.00;23676.00
1724250245.753;400;89.00;81091.00
1724250245.802;400;89.00;81091.00
1724250245.852;400;89.00;81091.00
1724250245.902;400;90.00;55134.00
1724250245.952;400;89.00;93372.00
1724250246.003;400;89.00;93372.00
1724250246.053;400;89.00;93372.00
1724250246.103;400;89.00;18289.00
1724250246.153;400;92.00;55666.00
1724250246.204;400;92.00;55666.00
1724250246.254;400;92.00;55666.00
1724250246.304;400;89.00;29153.00
1724250246.354;400;89.00;28676.00
1724250246.404;400;89.00;73834.00
1724250246.454;400;89.00;73834.00
1724250246.504;400;87.00;89496.00
1724250246.553;400;94.00;89999.00
1724250246.603;400;94.00;55044.00
1724250246.653;400;94.00;55044.00
1724250246.703;400;92.00;6699.00
1724250246.753;400;92.00;27032.00
1724250246.804;400;94.00;89999.00
1724250246.854;400;94.00;89999.00
1724250246.904;400;91.00;12947.00
1724250246.954;400;91.00;4701.00
1724250247.004;400;87.00;8655.00
1724250247.054;400;87.00;8655.00
1724250247.103;400;92.00;91234.00
1724250247.154;400;87.00;51942.00
1724250247.204;400;87.00;51942.00
1724250247.254;400;87.00;51942.00
1724250247.305;400;92.00;86208.00
1724250247.355;400;91.00;65968.00
1724250365.822;300;89.00;89398.00
1724250365.872;300;85.00;57566.00
1724250365.922;300;85.00;57566.00
1724250365.972;300;94.00;17423.00
1724250366.022;300;90.00;39821.00
1724250366.072;300;90.00;39821.00
1724250366.122;300;90.00;39821.00
1724250366.172;300;89.00;64725.00
1724250366.222;300;92.00;9432.00
1724250366.273;300;92.00;9432.00
1724250366.323;300;92.00;9432.00
1724250366.373;300;94.00;89999.00
1724250366.423;300;89.00;26793.00
1724250366.473;300;89.00;26793.00
1724250366.523;300;89.00;26793.00
1724250366.573;300;90.00;38354.00
1724250366.624;300;89.00;83866.00
1724250366.674;300;89.00;83866.00
1724250366.724;300;89.00;83866.00
1724250366.774;300;88.00;92742.00
1724250366.824;300;92.00;64622.00
1724250366.874;300;92.00;64622.00
1724250366.924;300;92.00;64622.00
1724250366.974;300;88.00;98128.00
1724250367.024;300;90.00;58937.00
1724250367.074;300;90.00;58937.00
1724250367.123;300;90.00;58937.00
1724250367.174;300;91.00;38139.00
1724250367.223;300;94.00;89999.00
1724250367.273;300;94.00;89999.00
1724250367.323;300;94.00;89999.00
1724250367.379;300;89.00;47272.00
1724250367.424;300;90.00;27105.00
1724250367.475;300;90.00;27105.00
1724250367.524;300;90.00;27105.00
1724250367.575;300;88.00;45744.00
1724250367.625;300;91.00;97982.00
1724250367.675;300;93.00;62074.00
1724250367.725;300;93.00;62074.00
1724250367.776;300;93.00;62074.00
1724250367.826;300;92.00;6167.00
1724250367.876;300;91.00;23804.00
1724250367.926;300;91.00;23804.00
1724250367.976;300;91.00;23804.00
1724250368.026;300;90.00;73651.00
1724250368.076;300;92.00;24312.00
1724250368.126;300;92.00;24312.00
1724250368.176;300;92.00;24312.00
1724250368.226;300;94.00;89999.00
1724250368.276;300;91.00;919.00
1724250368.326;300;91.00;919.00
1724250368.376;300;89.00;41776.00
1724250368.425;300;90.00;16743.00
1724250368.475;300;93.00;6382.00
1724250368.526;300;93.00;6382.00
1724250368.576;300;89.00;50702.00
1724250368.625;300;89.00;82491.00
1724250368.675;300;83.00;73209.00
1724250368.725;300;83.00;73209.00
1724250368.775;300;89.00;9872.00
1724250368.825;300;90.00;79514.00
1724250368.875;300;88.00;25753.00
1724250368.925;300;88.00;25753.00
1724250368.975;300;88.00;25753.00
1724250369.025;300;88.00;25753.00
1724250369.075;300;89.00;76707.00
1724250369.125;300;89.00;76707.00
1724250369.175;300;89.00;76707.00
1724250369.225;300;91.00;55312.00
1724250369.275;300;88.00;42993.00
1724250369.325;300;88.00;42993.00
1724250369.375;300;88.00;42993.00
1724250369.425;300;93.00;6433.00
1724250369.475;300;94.00;89999.00
1724250369.525;300;94.00;89999.00
1724250369.575;300;89.00;8858.00
1724250369.626;300;91.00;49841.00
1724250369.675;300;87.00;62261.00
1724250369.725;300;87.00;62261.00
1724250369.775;300;82.00;84885.00
1724250369.825;300;93.00;78983.00
1724250369.875;300;94.00;10998.00
1724250369.925;300;94.00;10998.00
1724250369.976;300;94.00;58492.00
1724250370.026;300;94.00;89999.00
1724250370.076;300;89.00;38353.00
1724250370.126;300;89.00;38353.00
1724250370.176;300;89.00;38353.00
1724250370.226;300;94.00;89999.00
1724250370.276;300;90.00;25938.00
1724250370.326;300;90.00;25938.00
1724250370.377;300;90.00;25938.00
1724250370.427;300;87.00;89001.00
1724250370.477;300;88.00;87387.00
1724250370.527;300;88.00;87387.00
1724250370.577;300;88.00;87387.00
1724250370.627;300;94.00;89999.00
1724250370.676;300;89.00;4366.00
1724250370.727;300;89.00;4366.00
1724250370.777;300;89.00;4366.00
1724250370.827;300;92.00;3374.00
1724250370.877;300;92.00;8503.00
1724250370.927;300;92.00;8503.00
1724250370.977;300;92.00;8503.00
1724250371.026;300;89.00;47021.00
1724250371.077;300;88.00;73406.00
1724250371.127;300;88.00;73406.00
1724250371.177;300;88.00;73406.00
1724250371.227;300;90.00;58142.00
1724250371.277;300;94.00;22179.00
1724250371.327;300;94.00;22179.00
1724250371.377;300;94.00;22179.00
1724250371.427;300;94.00;89999.00
1724250371.477;300;90.00;80119.00
1724250371.527;300;90.00;80119.00
1724250371.577;300;90.00;80119.00
1724250371.627;300;91.00;51363.00
1724250379.171;300;90.00;47859.00
1724250379.221;300;91.00;17239.00
1724250379.272;300;91.00;17239.00
1724250379.322;300;91.00;17239.00
1724250379.372;300;91.00;43886.00
1724250379.422;300;94.00;89999.00
1724250379.472;300;94.00;89999.00
1724250379.522;300;94.00;89999.00
1724250379.572;300;89.00;27527.00
1724250379.622;300;88.00;22532.00
1724250379.673;300;88.00;22532.00
1724250379.723;300;88.00;22532.00
1724250379.773;300;90.00;31983.00
1724250379.823;300;90.00;31983.00
1724250379.873;300;90.00;31983.00
1724250379.923;300;85.00;8556.00
1724250379.973;300;89.00;69696.00
1724250380.022;300;89.00;69696.00
1724250380.072;300;89.00;69696.00
1724250380.123;300;94.00;89999.00
1724250380.173;300;90.00;84013.00
1724250380.223;300;90.00;84013.00
1724250380.273;300;90.00;84013.00
1724250380.322;300;92.00;47878.00
1724250380.372;300;88.00;94735.00
1724250380.422;300;88.00;94735.00
1724250380.472;300;88.00;94735.00
1724250380.522;300;89.00;42486.00
1724250380.572;300;94.00;25021.00
1724250380.622;300;94.00;25021.00
1724250380.672;300;94.00;25021.00
1724250380.722;300;89.00;28089.00
1724250380.772;300;90.00;27123.00
1724250380.822;300;90.00;27123.00
1724250380.872;300;84.00;85038.00
1724250380.922;300;93.00;93416.00
1724250380.973;300;94.00;89999.00
1724250381.023;300;94.00;89999.00
1724250381.072;300;94.00;89999.00
1724250381.123;300;92.00;12965.00
1724250381.173;300;90.00;20039.00
1724250381.223;300;90.00;20039.00
1724250381.272;300;85.00;18985.00
1724250381.322;300;94.00;28726.00
1724250381.372;300;90.00;1678.00
1724250381.423;300;90.00;1678.00
1724250381.472;300;94.00;89999.00
1724250381.522;300;89.00;8298.00
1724250381.572;300;89.00;8298.00
1724250381.623;300;89.00;8298.00
1724250381.673;300;93.00;75945.00
1724250381.723;300;89.00;25344.00
1724250381.773;300;89.00;25344.00
1724250381.824;300;89.00;25344.00
1724250381.874;300;92.00;1925.00
1724250381.924;300;90.00;31782.00
1724250381.974;300;90.00;31782.00
1724250382.025;300;90.00;31782.00
1724250382.075;300;89.00;21224.00
1724250382.125;300;90.00;23266.00
1724250382.175;300;90.00;23266.00
1724250382.225;300;90.00;23266.00
1724250382.276;300;92.00;1694.00
1724250382.326;300;89.00;58802.00
1724250382.376;300;89.00;58802.00
1724250382.426;300;89.00;58802.00
1724250382.477;300;94.00;89999.00
1724250382.526;300;90.00;3372.00
1724250382.577;300;90.00;3372.00
1724250382.627;300;90.00;3372.00
1724250382.677;300;94.00;20235.00
1724250382.727;300;88.00;97205.00
1724250382.777;300;88.00;97205.00
1724250382.827;300;88.00;97205.00
1724250382.877;300;88.00;89038.00
1724250382.926;300;90.00;37094.00
1724250382.976;300;90.00;37094.00
1724250383.027;300;90.00;37094.00
1724250383.076;300;91.00;8381.00
1724250383.127;300;94.00;89999.00
1724250383.177;300;94.00;89999.00
1724250383.227;300;90.00;33885.00
1724250383.278;300;92.00;7103.00
1724250383.328;300;92.00;7103.00
1724250383.378;300;92.00;7103.00
1724250383.427;300;94.00;10833.00
1724250383.477;300;94.00;10833.00
1724250383.527;300;94.00;10833.00
1724250383.577;300;88.00;58276.00
1724250383.627;300;91.00;1376.00
1724250383.678;300;85.00;67909.00
1724250383.734;300;85.00;67909.00
1724250383.781;300;88.00;59168.00
1724250383.830;300;94.00;89999.00
1724250383.880;300;94.00;89999.00
1724250383.930;300;94.00;89999.00
1724250383.981;300;94.00;89999.00
1724250384.031;300;89.00;20178.00
1724250384.081;300;89.00;20178.00
1724250384.131;300;89.00;20178.00
1724250384.182;300;94.00;89999.00
1724250384.232;300;90.00;13986.00
1724250384.282;300;85.00;34696.00
1724250384.332;300;85.00;34696.00
1724250384.382;300;88.00;77361.00
1724250384.432;300;94.00;89999.00
1724250384.482;300;92.00;32345.00
1724250384.532;300;92.00;32345.00
1724250384.582;300;88.00;50439.00
1724250384.631;300;94.00;25847.00
1724250384.681;300;94.00;25847.00
1724250384.731;300;94.00;25847.00
1724250384.781;300;89.00;24788.00
1724250384.831;300;91.00;55936.00
1724250392.223;300;94.00;89999.00
1724250392.273;300;92.00;56981.00
1724250392.323;300;94.00;89999.00
1724250392.373;300;94.00;89999.00
1724250392.423;300;94.00;89999.00
1724250392.473;300;90.00;82723.00
1724250392.523;300;90.00;82723.00
1724250392.572;300;90.00;82723.00
1724250392.622;300;87.00;72837.00
1724250392.672;300;94.00;89999.00
1724250392.722;300;94.00;89999.00
1724250392.772;300;94.00;89999.00
1724250392.823;300;90.00;34759.00
1724250392.873;300;89.00;87369.00
1724250392.923;300;89.00;87369.00
1724250392.973;300;89.00;50452.00
1724250393.023;300;87.00;32343.00
1724250393.073;300;88.00;55891.00
1724250393.123;300;88.00;55891.00
1724250393.174;300;88.00;86201.00
1724250393.224;300;88.00;12384.00
1724250393.274;300;90.00;60851.00
1724250393.323;300;90.00;60851.00
1724250393.374;300;87.00;27532.00
1724250393.424;300;92.00;7713.00
1724250393.474;300;88.00;98428.00
1724250393.525;300;88.00;98428.00
1724250393.575;300;87.00;9059.00
1724250393.624;300;94.00;89999.00
1724250393.674;300;90.00;2567.00
1724250393.724;300;90.00;2567.00
1724250393.775;300;90.00;72092.00
1724250393.825;300;93.00;79173.00
1724250393.875;300;90.00;2573.00
1724250393.925;300;90.00;2573.00
1724250393.975;300;90.00;63931.00
1724250394.025;300;88.00;53532.00
1724250394.075;300;88.00;53532.00
1724250394.125;300;88.00;53532.00
1724250394.175;300;89.00;33866.00
1724250394.226;300;94.00;24619.00
1724250394.276;300;90.00;77075.00
1724250394.325;300;90.00;77075.00
1724250394.377;300;90.00;77075.00
1724250394.426;300;89.00;45506.00
1724250394.477;300;94.00;89999.00
1724250394.527;300;94.00;89999.00
1724250394.578;300;94.00;89999.00
1724250394.628;300;94.00;53222.00
1724250394.677;300;89.00;79073.00
1724250394.728;300;89.00;79073.00
1724250394.778;300;89.00;79073.00
1724250394.828;300;93.00;53423.00
1724250394.878;300;90.00;7757.00
1724250394.929;300;92.00;13553.00
1724250394.979;300;92.00;13553.00
1724250395.029;300;88.00;38047.00
1724250395.079;300;90.00;67648.00
1724250395.129;300;90.00;67648.00
1724250395.179;300;90.00;67648.00
1724250395.229;300;90.00;67648.00
1724250395.279;300;88.00;66908.00
1724250395.329;300;88.00;66908.00
1724250395.378;300;88.00;66908.00
1724250395.430;300;88.00;33957.00
1724250395.480;300;89.00;26799.00
1724250395.530;300;89.00;26799.00
1724250395.580;300;89.00;26799.00
1724250395.630;300;88.00;64921.00
1724250395.680;300;94.00;89999.00
1724250395.730;300;94.00;89999.00
1724250395.780;300;94.00;89999.00
1724250395.830;300;89.00;304.00
1724250395.880;300;88.00;74684.00
1724250395.930;300;88.00;74684.00
1724250395.980;300;88.00;74684.00
1724250396.029;300;87.00;92412.00
1724250396.079;300;90.00;92333.00
1724250396.129;300;90.00;92333.00
1724250396.179;300;90.00;92333.00
1724250396.229;300;92.00;93862.00
1724250396.279;300;90.00;17807.00
1724250396.329;300;94.00;89999.00
1724250396.379;300;94.00;89999.00
1724250396.429;300;89.00;26389.00
1724250396.479;300;93.00;88941.00
1724250396.532;300;93.00;88941.00
1724250396.579;300;93.00;88941.00
1724250396.629;300;93.00;88941.00
1724250396.680;300;90.00;45017.00
1724250396.730;300;90.00;45017.00
1724250396.780;300;90.00;45017.00
1724250396.831;300;89.00;46722.00
1724250396.881;300;94.00;89999.00
1724250396.931;300;94.00;89999.00
1724250396.981;300;94.00;89999.00
1724250397.030;300;89.00;83102.00
1724250397.080;300;88.00;33126.00
1724250397.130;300;88.00;33126.00
1724250397.180;300;88.00;33126.00
1724250397.230;300;92.00;24165.00
1724250397.280;300;92.00;67245.00
1724250397.330;300;92.00;67245.00
1724250397.380;300;92.00;67245.00
1724250397.430;300;90.00;10257.00
1724250397.480;300;90.00;12201.00
1724250397.530;300;90.00;12201.00
1724250397.580;300;90.00;12201.00
1724250397.630;300;90.00;58375.00
1724250397.680;300;89.00;61596.00
1724250397.730;300;89.00;61596.00
1724250397.780;300;89.00;61596.00
1724250397.830;300;90.00;65869.00
1724250397.880;300;90.00;54272.00
1724250397.930;300;90.00;54272.00
1724250397.980;300;90.00;54272.00
1724250398.030;300;91.00;41838.00
