UnixTimestamp;Microseconds;MilliAmpere;BaseValue
1724085258.480;200;2.00
1724085258.528;200;2.00
1724085258.578;200;2.00
1724085258.628;200;2.00
1724085258.678;200;2.00
1724085258.728;200;2.00
1724085258.778;200;2.00
1724085258.828;200;2.00
1724085258.878;200;2.00
1724085258.929;200;2.00
1724085258.979;200;2.00
1724085259.029;200;2.00
1724085259.079;200;2.00
1724085259.129;200;2.00
1724085259.179;200;2.00
1724085259.229;200;2.00
1724085259.279;200;2.00
1724085259.329;200;2.00
1724085259.379;200;2.00
1724085259.429;200;2.00
1724085259.479;200;2.00
1724085259.529;200;2.00
1724085259.579;200;2.00
1724085264.295;200;8.00;207306.00
1724085264.345;200;8.00;207306.00
1724085264.394;200;8.00;286315.00
1724085264.444;200;11.00;24891.00
1724085264.495;200;11.00;24891.00
1724085264.545;200;10.00;21227.00
1724085264.595;200;9.00;51579.00
1724085264.644;200;9.00;51579.00
1724085264.694;200;13.00;61863.00
1724085264.744;200;13.00;61863.00
1724085264.795;200;13.00;61863.00
1724085264.845;200;12.00;72033.00
1724085264.894;200;12.00;72033.00
1724085264.944;200;12.00;72033.00
1724085264.994;200;11.00;64603.00
1724085265.044;200;11.00;64603.00
1724085265.095;200;11.00;64603.00
1724085265.144;200;12.00;70471.00
1724085265.194;200;12.00;70471.00
1724085265.244;200;12.00;70471.00
1724085265.294;200;11.00;18449.00
1724085265.345;200;11.00;18449.00
1724085265.394;200;11.00;18449.00
1724085265.444;200;12.00;42434.00
1724085265.494;200;12.00;42434.00
1724085265.544;200;12.00;42434.00
1724085265.594;200;12.00;2291.00
1724085265.644;200;12.00;2291.00
1724085265.694;200;12.00;2291.00
1724085265.744;200;17.00;40443.00
1724085265.794;200;17.00;40443.00
1724085265.844;200;17.00;40443.00
1724085265.894;200;16.00;91577.00
1724085265.944;200;16.00;91577.00
1724085265.994;200;17.00;4488.00
1724085266.044;200;10.00;23769.00
1724085266.094;200;10.00;23769.00
1724085266.144;200;10.00;36329.00
1724085266.194;200;10.00;71625.00
1724085266.244;200;10.00;71625.00
1724085266.294;200;10.00;45387.00
1724085266.344;200;11.00;73594.00
1724085266.394;200;11.00;73594.00
1724085266.444;200;11.00;41489.00
1724085266.494;200;10.00;86506.00
1724085266.544;200;10.00;86506.00
1724085266.594;200;10.00;71382.00
1724085266.644;200;12.00;16151.00
1724085266.694;200;12.00;16151.00
1724085266.744;200;11.00;75113.00
1724085266.794;200;12.00;41549.00
1724085266.844;200;12.00;41549.00
1724085266.894;200;11.00;8891.00
1724085266.944;200;18.00;89405.00
1724085266.994;200;18.00;89405.00
1724085267.044;200;17.00;58448.00
1724085267.094;200;11.00;4976.00
1724085267.144;200;11.00;4976.00
1724085267.194;200;10.00;24882.00
1724085267.244;200;18.00;6243.00
1724085267.294;200;18.00;6243.00
1724085267.344;200;19.00;4618.00
1724085267.394;200;18.00;9621.00
1724085267.444;200;18.00;9621.00
1724085267.494;200;18.00;797.00
1724085267.544;200;15.00;38303.00
1724085267.594;200;15.00;38303.00
1724085267.644;200;10.00;42225.00
1724085267.694;200;10.00;42225.00
1724085267.744;200;10.00;42225.00
1724085267.794;200;6.00;713181.00
1724085267.844;200;6.00;713181.00
1724085267.894;200;6.00;713181.00
1724085267.944;200;10.00;96265.00
1724085267.994;200;10.00;96265.00
1724085268.044;200;10.00;96265.00
1724085268.094;200;9.00;543112.00
1724085268.145;200;9.00;543112.00
1724085268.195;200;9.00;543112.00
1724085268.245;200;9.00;908092.00
1724085268.295;200;9.00;908092.00
1724085268.345;200;9.00;908092.00
1724085268.395;200;10.00;97208.00
1724085268.445;200;10.00;97208.00
1724085268.495;200;10.00;97208.00
1724085268.546;200;8.00;53956.00
1724085268.596;200;8.00;53956.00
1724085268.646;200;8.00;53956.00
1724085268.696;200;14.00;73001.00
1724085268.746;200;14.00;73001.00
1724085268.796;200;14.00;73001.00
1724085268.846;200;13.00;76729.00
1724085268.896;200;9.00;653076.00
1724085268.946;200;9.00;653076.00
1724085268.996;200;9.00;351483.00
1724085278.657;200;7.00;953322.00
1724085278.707;200;7.00;953322.00
1724085278.758;200;7.00;330674.00
1724085278.807;200;14.00;3004.00
1724085278.857;200;14.00;3004.00
1724085278.907;200;14.00;5894.00
1724085278.958;200;11.00;9856.00
1724085279.007;200;11.00;9856.00
1724085279.057;200;10.00;96972.00
1724085279.107;200;13.00;38086.00
1724085279.157;200;13.00;38086.00
1724085279.207;200;13.00;44543.00
1724085279.257;200;9.00;920179.00
1724085279.307;200;9.00;920179.00
1724085279.358;200;9.00;943764.00
1724085279.407;200;15.00;62573.00
1724085279.457;200;15.00;62573.00
1724085279.507;200;14.00;47153.00
1724085279.557;200;12.00;3754.00
1724085279.607;200;12.00;3754.00
1724085279.658;200;11.00;85652.00
1724085279.707;200;9.00;828492.00
1724085279.758;200;9.00;828492.00
1724085279.808;200;9.00;439337.00
1724085279.858;200;10.00;82467.00
1724085279.908;200;10.00;82467.00
1724085279.958;200;9.00;88937.00
1724085280.009;200;10.00;50067.00
1724085280.058;200;10.00;50067.00
1724085280.108;200;10.00;50067.00
1724085280.158;200;21.00;89077.00
1724085280.208;200;21.00;89077.00
1724085280.258;200;21.00;89077.00
1724085280.308;200;22.00;49049.00
1724085280.358;200;22.00;49049.00
1724085280.408;200;22.00;49049.00
1724085280.458;200;18.00;5287.00
1724085280.508;200;18.00;5287.00
1724085280.558;200;20.00;12432.00
1724085280.608;200;6.00;719962.00
1724085280.658;200;6.00;719962.00
1724085280.708;200;6.00;719962.00
1724085283.162;200;12.00;89014.00
1724085283.212;200;12.00;89014.00
1724085283.262;200;12.00;89014.00
1724085283.312;200;8.00;188214.00
1724085283.362;200;8.00;188214.00
1724085283.412;200;8.00;188214.00
1724085287.064;200;6.00;797649.00
1724085287.114;200;6.00;797649.00
1724085287.164;200;6.00;720109.00
1724085287.214;200;10.00;72886.00
1724085287.264;200;10.00;72886.00
1724085287.314;200;10.00;72886.00
1724085287.364;200;8.00;460405.00
1724085287.414;200;8.00;460405.00
1724085287.464;200;9.00;14968.00
1724085287.514;200;12.00;29904.00
1724085287.564;200;12.00;29904.00
1724085287.614;200;12.00;29904.00
1724085287.664;200;15.00;7163.00
1724085287.714;200;15.00;7163.00
1724085287.764;200;15.00;7163.00
1724085287.814;200;14.00;29862.00
1724085287.864;200;14.00;29862.00
1724085287.914;200;14.00;29862.00
1724085287.964;200;10.00;83757.00
1724085288.014;200;10.00;83757.00
1724085288.064;200;10.00;83757.00
1724085288.115;200;8.00;7847.00
1724085288.165;200;8.00;7847.00
1724085288.215;200;8.00;7847.00
1724085288.265;200;11.00;63865.00
1724085288.315;200;11.00;63865.00
1724085288.365;200;11.00;63865.00
1724085288.415;200;7.00;418527.00
1724085288.465;200;7.00;418527.00
1724085288.515;200;7.00;418527.00
1724085288.565;200;11.00;31937.00
1724085288.615;200;11.00;31937.00
1724085288.665;200;11.00;31937.00
1724085288.715;200;9.00;877728.00
1724085288.765;200;9.00;877728.00
1724085288.815;200;9.00;877728.00
1724085288.865;200;10.00;18168.00
1724085288.915;200;10.00;18168.00
1724085288.965;200;10.00;18168.00
1724085289.015;200;10.00;30314.00
1724085289.065;200;10.00;30314.00
1724085289.115;200;10.00;30314.00
1724085289.166;200;8.00;341151.00
1724085289.216;200;8.00;341151.00
1724085289.266;200;8.00;341151.00
1724085289.316;200;10.00;76217.00
1724085289.366;200;10.00;76217.00
1724085289.416;200;10.00;76217.00
1724085289.466;200;9.00;346176.00
1724085289.516;200;9.00;346176.00
1724085289.566;200;9.00;346176.00
1724085289.616;200;17.00;51557.00
1724085289.666;200;17.00;51557.00
1724085289.716;200;17.00;51557.00
1724085289.766;200;7.00;300971.00
1724085289.817;200;7.00;300971.00
1724085289.867;200;7.00;300971.00
1724085289.917;200;19.00;23022.00
1724085289.967;200;19.00;23022.00
1724085290.017;200;19.00;23022.00
1724085290.067;200;11.00;89021.00
1724085290.117;200;11.00;89021.00
1724085290.167;200;11.00;89021.00
1724085290.217;200;18.00;23072.00
1724085290.267;200;18.00;23072.00
1724085290.317;200;18.00;23072.00
1724085292.920;200;6.00;799268.00
1724085292.970;200;6.00;799268.00
1724085293.019;200;6.00;799268.00
1724085293.070;200;7.00;858097.00
1724085293.119;200;7.00;858097.00
1724085293.169;200;7.00;858097.00
1724085293.219;200;6.00;901273.00
1724085293.270;200;6.00;901273.00
1724085293.319;200;6.00;901273.00
1724085293.369;200;11.00;23034.00
1724085293.419;200;11.00;23034.00
1724085293.469;200;11.00;23034.00
1724085293.519;200;7.00;767221.00
1724085293.569;200;7.00;767221.00
1724085293.619;200;7.00;767221.00
1724085298.321;200;6.00;855651.00
1724085298.371;200;6.00;855651.00
1724085298.421;200;6.00;855651.00
1724085298.471;200;19.00;5369.00
1724085298.521;200;19.00;5369.00
1724085298.572;200;19.00;5369.00
1724085298.622;200;11.00;70116.00
1724085298.672;200;11.00;70116.00
1724085298.722;200;11.00;70116.00
1724085298.772;200;16.00;22303.00
1724085298.822;200;16.00;22303.00
1724085298.872;200;16.00;22303.00
1724085298.922;200;18.00;19674.00
1724085298.972;200;18.00;19674.00
1724085299.022;200;18.00;19674.00
1724085299.072;200;15.00;62315.00
1724085299.122;200;15.00;62315.00
1724085299.172;200;15.00;62315.00
1724085299.222;200;14.00;46674.00
1724085299.272;200;14.00;46674.00
1724085299.322;200;14.00;46674.00
1724085299.373;200;7.00;10175.00
1724085299.423;200;7.00;10175.00
1724085299.473;200;7.00;10175.00
1724085299.523;200;13.00;13838.00
1724085299.573;200;13.00;13838.00
1724085299.622;200;13.00;13838.00
1724085299.672;200;17.00;474.00
1724085299.722;200;17.00;474.00
1724085299.772;200;17.00;474.00
1724085301.022;200;7.00;202869.00
1724085301.072;200;7.00;202869.00
1724085301.122;200;7.00;202869.00
1724085301.172;200;8.00;541184.00
1724085301.222;200;8.00;541184.00
1724085301.273;200;8.00;541184.00
1724085301.323;200;6.00;992075.00
1724085301.373;200;6.00;992075.00
1724085301.423;200;6.00;992075.00
1724085301.473;200;15.00;89136.00
1724085301.523;200;15.00;89136.00
1724085301.573;200;15.00;89136.00
1724085301.624;200;11.00;29387.00
1724085301.674;200;11.00;29387.00
1724085301.724;200;11.00;29387.00
1724085303.828;200;10.00;67152.00
1724085303.879;200;10.00;67152.00
1724085303.928;200;10.00;67152.00
1724085303.978;200;11.00;43759.00
1724085304.028;200;11.00;43759.00
1724085304.078;200;11.00;43759.00
1724085304.129;200;10.00;81833.00
1724085304.179;200;10.00;81833.00
1724085304.229;200;10.00;81833.00
1724085304.279;200;13.00;32706.00
1724085304.329;200;13.00;32706.00
1724085304.379;200;13.00;32706.00
1724085304.429;200;9.00;824954.00
1724085304.479;200;9.00;824954.00
1724085304.529;200;9.00;824954.00
