UnixTimestamp;Microseconds;MilliAmpere;BaseValue
1724152610.080;200;5.00
1724152610.129;200;5.00
1724152610.179;200;5.00
1724152610.229;200;5.00
1724152610.279;200;5.00
1724152610.329;200;5.00
1724152610.379;200;5.00
1724152610.429;200;5.00
1724152610.479;200;5.00
1724152610.529;200;5.00
1724152610.579;200;5.00
1724152610.629;200;5.00
1724152610.679;200;5.00
1724152610.729;200;5.00
1724152610.779;200;5.00
1724152610.829;200;5.00
1724152610.879;200;5.00
1724152610.928;200;5.00
1724152610.978;200;5.00
1724152611.029;200;5.00
1724152611.079;200;5.00
1724152611.129;200;5.00
1724152611.179;200;5.00
1724152611.229;200;5.00
1724152611.279;200;5.00
1724152619.275;200;5.00;457106.00
1724152619.325;200;5.00;416711.00
1724152619.375;200;5.00;416711.00
1724152619.425;200;5.00;416711.00
1724152619.475;200;5.00;416711.00
1724152619.525;200;7.00;58521.00
1724152619.575;200;6.00;507337.00
1724152619.625;200;6.00;507337.00
1724152619.675;200;6.00;507337.00
1724152619.725;200;6.00;507337.00
1724152619.775;200;14.00;53391.00
1724152619.826;200;5.00;415418.00
1724152619.875;200;5.00;455578.00
1724152619.925;200;5.00;455578.00
1724152619.975;200;5.00;455578.00
1724152620.026;200;14.00;60531.00
1724152620.075;200;7.00;407268.00
1724152620.125;200;7.00;29634.00
1724152620.175;200;7.00;29634.00
1724152620.225;200;7.00;29634.00
1724152620.276;200;7.00;29634.00
1724152620.326;200;13.00;77847.00
1724152620.377;200;6.00;45513.00
1724152620.427;200;7.00;616397.00
1724152620.477;200;7.00;616397.00
1724152620.527;200;7.00;616397.00
1724152620.577;200;7.00;616397.00
1724152620.626;200;14.00;56803.00
1724152620.677;200;8.00;504822.00
1724152620.727;200;10.00;6215.00
1724152620.777;200;10.00;6215.00
1724152620.827;200;10.00;6215.00
1724152620.877;200;10.00;6215.00
1724152620.928;200;15.00;28513.00
1724152620.978;200;15.00;84835.00
1724152621.029;200;12.00;5969.00
1724152621.079;200;12.00;5969.00
1724152621.129;200;12.00;5969.00
1724152621.179;200;12.00;5969.00
1724152621.229;200;10.00;28255.00
1724152621.279;200;11.00;33636.00
1724152621.329;200;11.00;33636.00
1724152621.378;200;11.00;33636.00
1724152621.428;200;11.00;33636.00
1724152621.478;200;9.00;61447.00
1724152621.528;200;10.00;7876.00
1724152621.578;200;10.00;7876.00
1724152621.628;200;10.00;7876.00
1724152621.678;200;10.00;7876.00
1724152621.728;200;10.00;17129.00
1724152621.778;200;14.00;51172.00
1724152621.828;200;14.00;51172.00
1724152621.878;200;14.00;51172.00
1724152621.928;200;14.00;51172.00
1724152621.978;200;14.00;51172.00
1724152622.028;200;17.00;57059.00
1724152622.079;200;6.00;508805.00
1724152622.128;200;12.00;975.00
1724152622.178;200;12.00;975.00
1724152622.228;200;12.00;975.00
1724152622.278;200;12.00;975.00
1724152622.329;200;5.00;824285.00
1724152622.379;200;22.00;53206.00
1724152622.428;200;22.00;53206.00
1724152622.478;200;22.00;53206.00
1724152622.528;200;22.00;53206.00
1724152622.578;200;22.00;53206.00
1724152622.628;200;8.00;454448.00
1724152622.678;200;10.00;36751.00
1724152622.728;200;10.00;36751.00
1724152622.778;200;10.00;36751.00
1724152622.828;200;10.00;36751.00
1724152622.878;200;10.00;36751.00
1724152622.929;200;5.00;702576.00
1724152622.979;200;15.00;19495.00
1724152623.029;200;15.00;19495.00
1724152623.079;200;15.00;19495.00
1724152623.129;200;15.00;19495.00
1724152623.179;200;9.00;421661.00
1724152623.232;200;10.00;40074.00
1724152623.282;200;7.00;309221.00
1724152623.332;200;7.00;309221.00
1724152623.382;200;7.00;309221.00
1724152623.432;200;7.00;309221.00
1724152623.482;200;7.00;926982.00
1724152623.532;200;10.00;6667.00
1724152623.582;200;10.00;6667.00
1724152623.633;200;10.00;6667.00
1724152623.683;200;10.00;6667.00
1724152623.733;200;6.00;994762.00
1724152623.783;200;5.00;388705.00
1724152623.833;200;5.00;388705.00
1724152623.883;200;5.00;388705.00
1724152623.933;200;5.00;388705.00
1724152623.983;200;8.00;47342.00
1724152624.033;200;7.00;93614.00
1724152624.083;200;7.00;93614.00
1724152624.133;200;7.00;93614.00
1724152624.183;200;7.00;93614.00
1724152629.540;200;7.00;953169.00
1724152629.591;200;8.00;85621.00
1724152629.641;200;8.00;85621.00
1724152629.691;200;8.00;85621.00
1724152629.741;200;8.00;85621.00
1724152629.791;200;11.00;88532.00
1724152629.854;200;7.00;653385.00
1724152629.891;200;7.00;653385.00
1724152629.941;200;7.00;653385.00
1724152629.991;200;7.00;653385.00
1724152630.041;200;11.00;24612.00
1724152630.091;200;9.00;307996.00
1724152630.141;200;9.00;307996.00
1724152630.191;200;9.00;307996.00
1724152630.241;200;9.00;307996.00
1724152630.291;200;9.00;39982.00
1724152630.342;200;9.00;316978.00
1724152630.391;200;15.00;79651.00
1724152630.441;200;15.00;79651.00
1724152630.492;200;15.00;79651.00
1724152630.542;200;15.00;79651.00
1724152630.592;200;9.00;709466.00
1724152630.643;200;8.00;747182.00
1724152630.692;200;8.00;747182.00
1724152630.742;200;8.00;747182.00
1724152630.792;200;8.00;747182.00
1724152630.842;200;11.00;3963.00
1724152630.892;200;9.00;561864.00
1724152630.942;200;9.00;561864.00
1724152630.992;200;9.00;561864.00
1724152631.042;200;9.00;561864.00
1724152631.092;200;8.00;885507.00
1724152631.142;200;16.00;28088.00
1724152631.192;200;16.00;28088.00
1724152631.242;200;16.00;28088.00
1724152631.298;200;16.00;28088.00
1724152631.345;200;8.00;468067.00
1724152631.395;200;12.00;43474.00
1724152631.445;200;17.00;4648.00
1724152631.495;200;17.00;4648.00
1724152631.545;200;17.00;4648.00
1724152631.595;200;17.00;4648.00
1724152631.645;200;10.00;11822.00
1724152631.695;200;7.00;896334.00
1724152631.745;200;7.00;896334.00
1724152631.795;200;7.00;896334.00
1724152631.845;200;7.00;896334.00
1724152631.896;200;11.00;84809.00
1724152631.945;200;7.00;622036.00
1724152631.995;200;7.00;622036.00
1724152632.045;200;7.00;622036.00
1724152632.095;200;7.00;622036.00
1724152632.146;200;13.00;21877.00
1724152632.196;200;11.00;53117.00
1724152632.245;200;11.00;53117.00
1724152632.296;200;11.00;53117.00
1724152632.346;200;11.00;53117.00
1724152632.396;200;10.00;60787.00
1724152632.447;200;13.00;48127.00
1724152632.497;200;11.00;7668.00
1724152632.547;200;11.00;7668.00
1724152632.600;200;11.00;7668.00
1724152632.646;200;11.00;7668.00
1724152632.696;200;6.00;429015.00
1724152632.746;200;7.00;497214.00
1724152632.946;200;5.00;484757.00
1724152636.802;200;5.00;57441.00
1724152636.853;200;5.00;903782.00
1724152636.902;200;5.00;903782.00
1724152636.952;200;5.00;903782.00
1724152637.002;200;5.00;903782.00
1724152637.052;200;8.00;381176.00
1724152637.102;200;7.00;550817.00
1724152637.152;200;13.00;59136.00
1724152637.202;200;13.00;59136.00
1724152637.252;200;13.00;59136.00
1724152637.302;200;13.00;59136.00
1724152637.352;200;9.00;94581.00
1724152637.402;200;14.00;1776.00
1724152637.452;200;14.00;1776.00
1724152637.502;200;14.00;1776.00
1724152637.553;200;14.00;1776.00
1724152637.603;200;10.00;80127.00
1724152637.653;200;12.00;3307.00
1724152637.703;200;12.00;80768.00
1724152637.753;200;12.00;80768.00
1724152637.803;200;12.00;80768.00
1724152637.853;200;12.00;58169.00
1724152637.903;200;11.00;7639.00
1724152637.953;200;12.00;93074.00
1724152638.003;200;12.00;93074.00
1724152638.053;200;12.00;93074.00
1724152638.103;200;12.00;93074.00
1724152638.153;200;8.00;81347.00
1724152638.203;200;8.00;4006.00
1724152638.253;200;8.00;4006.00
1724152638.303;200;8.00;4006.00
1724152638.353;200;8.00;4006.00
1724152638.403;200;10.00;15767.00
1724152638.453;200;7.00;584283.00
1724152638.503;200;7.00;584283.00
1724152638.553;200;7.00;584283.00
1724152638.603;200;7.00;584283.00
1724152638.653;200;12.00;18393.00
1724152638.703;200;10.00;20699.00
1724152638.753;200;10.00;20699.00
1724152638.803;200;10.00;20699.00
1724152638.853;200;10.00;20699.00
1724152638.903;200;10.00;20699.00
1724152638.953;200;6.00;536691.00
1724152639.003;200;16.00;23855.00
1724152639.053;200;16.00;23855.00
1724152639.103;200;16.00;23855.00
1724152639.153;200;16.00;23855.00
1724152639.203;200;16.00;23855.00
1724152639.253;200;10.00;86033.00
1724152639.303;200;10.00;75148.00
1724152639.354;200;10.00;71749.00
1724152639.404;200;10.00;71749.00
1724152639.454;200;10.00;71749.00
1724152639.504;200;10.00;71749.00
1724152639.554;200;15.00;79962.00
1724152639.604;200;11.00;29227.00
1724152639.654;200;11.00;29227.00
1724152639.704;200;11.00;29227.00
1724152639.754;200;11.00;29227.00
1724152639.805;200;11.00;29227.00
1724152639.855;200;16.00;6875.00
1724152639.904;200;12.00;69888.00
1724152639.954;200;13.00;20357.00
1724152640.004;200;13.00;20357.00
1724152640.054;200;13.00;20357.00
1724152640.104;200;13.00;20357.00
1724152640.154;200;15.00;17939.00
1724152640.204;200;13.00;65688.00
1724152640.254;200;16.00;99904.00
1724152640.304;200;16.00;99904.00
1724152640.354;200;16.00;99904.00
1724152640.404;200;16.00;99904.00
1724152640.454;200;22.00;53206.00
1724152640.504;200;16.00;83418.00
1724152640.554;200;16.00;83418.00
1724152640.604;200;16.00;83418.00
1724152640.654;200;16.00;83418.00
1724152640.704;200;16.00;83418.00
1724152640.754;200;18.00;10558.00
1724152640.804;200;6.00;320633.00
1724152640.854;200;18.00;76502.00
1724152640.904;200;18.00;76502.00
1724152640.954;200;18.00;76502.00
1724152641.004;200;18.00;76502.00
1724152641.054;200;18.00;6422.00
1724152641.104;200;15.00;89174.00
1724152641.154;200;15.00;89174.00
1724152641.205;200;15.00;89174.00
1724152641.255;200;15.00;89174.00
1724152641.305;200;13.00;46642.00
1724152641.355;200;11.00;84569.00
1724152641.406;200;11.00;84569.00
1724152641.455;200;11.00;84569.00
1724152641.506;200;11.00;84569.00
1724152641.556;200;6.00;172797.00
1724152641.606;200;11.00;63139.00
1724152641.656;200;11.00;63139.00
1724152641.706;200;11.00;63139.00
1724152641.756;200;11.00;63139.00
1724152641.813;200;10.00;40449.00
1724152641.857;200;5.00;207579.00
1724152641.907;200;5.00;207579.00
1724152641.957;200;5.00;207579.00
1724152642.007;200;5.00;207579.00
1724152642.057;200;12.00;69154.00
1724152642.108;200;11.00;28106.00
1724152642.158;200;11.00;28106.00
1724152642.208;200;11.00;28106.00
1724152642.258;200;11.00;28106.00
1724152642.308;200;9.00;275586.00
1724152642.358;200;16.00;5677.00
1724152642.408;200;16.00;5677.00
1724152642.458;200;16.00;5677.00
1724152642.508;200;16.00;5677.00
1724152642.558;200;16.00;53568.00
1724152642.608;200;14.00;5783.00
1724152642.659;200;14.00;5783.00
1724152642.709;200;14.00;5783.00
1724152642.759;200;14.00;5783.00
1724152642.809;200;5.00;313731.00
1724152643.059;200;8.00;74272.00
1724152651.521;200;6.00;402712.00
1724152651.571;200;7.00;424823.00
1724152651.621;200;7.00;391357.00
1724152651.671;200;7.00;391357.00
1724152651.721;200;7.00;391357.00
1724152651.771;200;9.00;165443.00
1724152651.820;200;15.00;28026.00
1724152651.870;200;15.00;28026.00
1724152651.920;200;15.00;28026.00
1724152651.970;200;15.00;28026.00
1724152652.020;200;15.00;28026.00
1724152652.070;200;14.00;4033.00
1724152652.120;200;9.00;641245.00
1724152652.170;200;9.00;641245.00
1724152652.220;200;9.00;641245.00
1724152652.270;200;9.00;641245.00
1724152652.320;200;9.00;641245.00
1724152652.370;200;16.00;7319.00
1724152652.420;200;9.00;682754.00
1724152652.470;200;9.00;682754.00
1724152652.520;200;9.00;682754.00
1724152652.570;200;9.00;682754.00
1724152652.620;200;9.00;682754.00
1724152652.670;200;10.00;90519.00
1724152652.720;200;9.00;286625.00
1724152652.770;200;9.00;286625.00
1724152652.820;200;9.00;286625.00
1724152652.870;200;9.00;286625.00
1724152652.920;200;11.00;5024.00
1724152652.970;200;10.00;65531.00
1724152653.021;200;10.00;3625.00
1724152653.071;200;10.00;3625.00
1724152653.121;200;10.00;3625.00
1724152653.171;200;10.00;3625.00
1724152653.221;200;11.00;31646.00
1724152653.272;200;9.00;69755.00
1724152653.322;200;15.00;82921.00
1724152653.372;200;15.00;82921.00
1724152653.422;200;15.00;82921.00
1724152653.471;200;15.00;82921.00
1724152653.521;200;14.00;56856.00
1724152653.571;200;13.00;7646.00
1724152653.622;200;13.00;7646.00
1724152653.671;200;13.00;7646.00
1724152653.722;200;13.00;7646.00
1724152653.772;200;11.00;5701.00
1724152653.822;200;14.00;33318.00
1724152653.872;200;14.00;33318.00
1724152653.923;200;14.00;33318.00
1724152653.973;200;14.00;33318.00
1724152654.023;200;10.00;38682.00
1724152654.073;200;14.00;47608.00
1724152654.123;200;12.00;94535.00
1724152654.173;200;12.00;94535.00
1724152654.223;200;12.00;94535.00
1724152654.273;200;12.00;54359.00
1724152654.323;200;14.00;3751.00
1724152654.373;200;11.00;32744.00
1724152654.423;200;11.00;32744.00
1724152654.473;200;11.00;32744.00
1724152654.523;200;11.00;32744.00
1724152654.575;200;13.00;60627.00
1724152654.625;200;13.00;39726.00
1724152654.675;200;22.00;53206.00
1724152654.725;200;22.00;53206.00
1724152654.775;200;22.00;53206.00
1724152654.824;200;22.00;53206.00
1724152654.874;200;15.00;71977.00
1724152654.926;200;18.00;63046.00
1724152654.976;200;18.00;63046.00
1724152655.026;200;18.00;63046.00
1724152655.076;200;18.00;63046.00
1724152655.126;200;12.00;16936.00
1724152655.176;200;18.00;69586.00
1724152655.226;200;18.00;69586.00
1724152655.276;200;18.00;69586.00
1724152655.325;200;18.00;69586.00
1724152655.376;200;11.00;25264.00
1724152655.426;200;19.00;15704.00
1724152655.476;200;19.00;15704.00
1724152655.526;200;19.00;15704.00
1724152655.576;200;19.00;15704.00
1724152655.626;200;12.00;85917.00
1724152655.676;200;19.00;11612.00
1724152655.726;200;19.00;11612.00
1724152655.776;200;19.00;11612.00
1724152655.826;200;19.00;11612.00
1724152655.876;200;8.00;668627.00
1724152655.926;200;13.00;33361.00
1724152655.976;200;13.00;33361.00
1724152656.026;200;13.00;33361.00
1724152656.076;200;13.00;33361.00
1724152656.127;200;14.00;55164.00
1724152656.177;200;17.00;65156.00
1724152656.227;200;17.00;65156.00
1724152656.277;200;17.00;65156.00
1724152656.327;200;17.00;65156.00
1724152656.377;200;22.00;53206.00
1724152656.427;200;18.00;93764.00
1724152656.477;200;18.00;93764.00
1724152656.527;200;18.00;93764.00
1724152656.577;200;18.00;93764.00
1724152656.627;200;5.00;977643.00
1724152656.877;200;5.00;749898.00
1724152657.127;200;6.00;320517.00
