UnixTimestamp;Microseconds;MilliAmpere;BaseValue
1724253574.296;200;50.00
1724253574.344;200;50.00
1724253574.394;200;50.00
1724253574.444;200;50.00
1724253574.494;200;50.00
1724253574.544;200;50.00
1724253574.595;200;50.00
1724253574.645;200;50.00
1724253574.695;200;50.00
1724253574.746;200;50.00
1724253574.796;200;50.00
1724253574.846;200;50.00
1724253574.896;200;50.00
1724253574.946;200;50.00
1724253574.996;200;50.00
1724253575.046;200;50.00
1724253575.096;200;50.00
1724253575.146;200;50.00
1724253575.196;200;50.00
1724253575.246;200;50.00
1724253581.138;559;15.00;51839.00
1724253581.188;572;15.00;53344.00
1724253581.238;572;15.00;53344.00
1724253581.288;572;15.00;53344.00
1724253581.338;577;15.00;53989.00
1724253581.388;577;15.00;53989.00
1724253581.438;577;15.00;53989.00
1724253581.488;577;15.00;53989.00
1724253581.538;562;15.00;52118.00
1724253581.588;546;15.00;50241.00
1724253581.639;546;15.00;50241.00
1724253581.689;546;15.00;50241.00
1724253581.739;557;15.00;51578.00
1724253581.790;554;15.00;51225.00
1724253581.840;554;15.00;51225.00
1724253581.890;554;15.00;51225.00
1724253581.940;586;15.00;55007.00
1724253581.991;523;15.00;47558.00
1724253582.041;526;15.00;47831.00
1724253582.091;526;15.00;47831.00
1724253582.141;526;15.00;47831.00
1724253582.191;586;15.00;55060.00
1724253582.240;564;15.00;52338.00
1724253582.290;564;15.00;52338.00
1724253582.341;564;15.00;52338.00
1724253582.391;547;15.00;50390.00
1724253582.441;547;15.00;50390.00
1724253582.491;547;15.00;50390.00
1724253582.541;600;15.00;56632.00
1724253582.591;584;15.00;54742.00
1724253582.641;584;15.00;54742.00
1724253582.691;584;15.00;54742.00
1724253582.740;579;15.00;54142.00
1724253582.791;600;15.00;56632.00
1724253582.840;600;15.00;56632.00
1724253582.890;600;15.00;56632.00
1724253582.940;559;15.00;51762.00
1724253582.990;559;15.00;51762.00
1724253583.040;559;15.00;51762.00
1724253583.090;559;15.00;51762.00
1724253583.140;568;15.00;52833.00
1724253583.192;568;15.00;52833.00
1724253583.243;568;15.00;52833.00
1724253583.293;568;15.00;52833.00
1724253583.343;556;15.00;51424.00
1724253583.393;569;15.00;52982.00
1724253583.443;569;15.00;52982.00
1724253583.493;569;15.00;52982.00
1724253583.543;561;15.00;52047.00
1724253583.593;563;15.00;52235.00
1724253583.643;563;15.00;52235.00
1724253583.693;563;15.00;52235.00
1724253583.743;571;15.00;53204.00
1724253583.793;553;15.00;51125.00
1724253583.843;553;15.00;51125.00
1724253583.892;553;15.00;51125.00
1724253583.942;558;15.00;51659.00
1724253583.992;584;15.00;54767.00
1724253584.043;584;15.00;54767.00
1724253584.092;584;15.00;54767.00
1724253584.143;600;15.00;56632.00
1724253584.193;544;15.00;49996.00
1724253584.243;544;15.00;49996.00
1724253584.293;544;15.00;49996.00
1724253584.343;554;15.00;51171.00
1724253584.393;554;15.00;51171.00
1724253584.443;554;15.00;51171.00
1724253584.493;554;15.00;51171.00
1724253584.543;549;15.00;50601.00
1724253584.593;549;15.00;50601.00
1724253584.643;549;15.00;50601.00
1724253584.693;600;15.00;56632.00
1724253584.743;544;15.00;49983.00
1724253584.792;544;15.00;49983.00
1724253584.842;544;15.00;49983.00
1724253584.892;547;15.00;50422.00
1724253584.942;547;15.00;50422.00
1724253584.992;547;15.00;50422.00
1724253585.042;582;15.00;54523.00
1724253585.092;599;15.00;56599.00
1724253585.142;599;15.00;56599.00
1724253585.192;599;15.00;56599.00
1724253585.243;596;15.00;56192.00
1724253585.293;580;15.00;54313.00
1724253585.343;580;15.00;54313.00
1724253585.393;580;15.00;54313.00
1724253585.443;558;15.00;51646.00
1724253585.493;550;15.00;50677.00
1724253585.543;550;15.00;50677.00
1724253585.593;550;15.00;50677.00
1724253585.643;557;15.00;51528.00
1724253585.693;591;15.00;55596.00
1724253585.743;591;15.00;55596.00
1724253585.793;591;15.00;55596.00
1724253585.843;557;15.00;51515.00
1724253585.893;566;15.00;52687.00
1724253585.943;566;15.00;52687.00
1724253585.993;566;15.00;52687.00
1724253586.043;566;15.00;52662.00
1724253586.093;568;15.00;52850.00
1724253586.145;568;15.00;52850.00
1724253586.195;568;15.00;52850.00
1724253586.245;563;15.00;52296.00
1724253586.295;561;15.00;52019.00
1724253586.345;561;15.00;52019.00
1724253586.395;561;15.00;52019.00
1724253586.445;566;15.00;52622.00
1724253586.495;552;15.00;50938.00
1724253586.545;552;15.00;50938.00
1724253586.595;552;15.00;50938.00
1724253586.645;598;15.00;56500.00
1724253586.696;598;15.00;56500.00
1724253586.746;598;15.00;56500.00
1724253586.796;598;15.00;56500.00
1724253586.846;551;15.00;50839.00
1724253593.940;567;15.00;52780.00
1724253593.990;587;15.00;55094.00
1724253594.040;587;15.00;55094.00
1724253594.090;587;15.00;55094.00
1724253594.140;594;15.00;55984.00
1724253594.191;553;15.00;51065.00
1724253594.240;553;15.00;51065.00
1724253594.294;553;15.00;51065.00
1724253594.341;563;15.00;52246.00
1724253594.392;600;15.00;56632.00
1724253594.442;600;15.00;56632.00
1724253594.492;600;15.00;56632.00
1724253594.541;584;15.00;54730.00
1724253594.592;563;15.00;52292.00
1724253594.642;578;15.00;54120.00
1724253594.692;578;15.00;54120.00
1724253594.741;578;15.00;54120.00
1724253594.791;552;15.00;50956.00
1724253594.841;517;15.00;46773.00
1724253594.891;517;15.00;46773.00
1724253594.942;517;15.00;46773.00
1724253594.991;570;15.00;53120.00
1724253595.041;595;15.00;56111.00
1724253595.091;595;15.00;56111.00
1724253595.141;595;15.00;56111.00
1724253595.191;549;15.00;50577.00
1724253595.241;595;15.00;56151.00
1724253595.292;595;15.00;56151.00
1724253595.342;595;15.00;56151.00
1724253595.393;553;15.00;51102.00
1724253595.444;592;15.00;55684.00
1724253595.494;592;15.00;55684.00
1724253595.544;592;15.00;55684.00
1724253595.594;596;15.00;56252.00
1724253595.644;552;15.00;50966.00
1724253595.694;552;15.00;50966.00
1724253595.744;552;15.00;50966.00
1724253595.793;600;15.00;56632.00
1724253595.844;550;15.00;50737.00
1724253595.894;550;15.00;50737.00
1724253595.944;550;15.00;50737.00
1724253595.994;552;15.00;51005.00
1724253596.044;586;15.00;55022.00
1724253596.095;586;15.00;55022.00
1724253596.145;600;15.00;56632.00
1724253596.195;559;15.00;51749.00
1724253596.245;497;15.00;44368.00
1724253596.294;497;15.00;44368.00
1724253596.345;497;15.00;44368.00
1724253596.395;536;15.00;49039.00
1724253596.445;596;15.00;56220.00
1724253596.495;596;15.00;56220.00
1724253596.546;596;15.00;56220.00
1724253596.595;567;15.00;52767.00
1724253596.645;564;15.00;52454.00
1724253596.695;564;15.00;52454.00
1724253596.745;564;15.00;52454.00
1724253596.795;562;15.00;52108.00
1724253596.845;588;15.00;55274.00
1724253596.896;588;15.00;55274.00
1724253596.946;588;15.00;55274.00
1724253596.996;593;15.00;55838.00
1724253597.045;553;15.00;51085.00
1724253597.097;553;15.00;51085.00
1724253597.147;549;15.00;50559.00
1724253597.197;600;15.00;56632.00
1724253597.247;562;15.00;52198.00
1724253597.296;562;15.00;52198.00
1724253597.346;567;15.00;52812.00
1724253597.396;553;15.00;51048.00
1724253597.447;553;15.00;51048.00
1724253597.497;553;15.00;51048.00
1724253597.547;563;15.00;52300.00
1724253597.597;568;15.00;52828.00
1724253597.647;568;15.00;52828.00
1724253597.697;568;15.00;52828.00
1724253597.746;540;15.00;49535.00
1724253597.796;580;15.00;54279.00
1724253597.847;580;15.00;54279.00
1724253597.897;580;15.00;54279.00
1724253597.948;561;15.00;52003.00
1724253597.998;564;15.00;52406.00
1724253598.048;564;15.00;52406.00
1724253598.099;564;15.00;52406.00
1724253598.148;555;15.00;51374.00
1724253598.199;536;15.00;49001.00
1724253598.249;536;15.00;49001.00
1724253598.298;536;15.00;49001.00
1724253598.348;598;15.00;56439.00
1724253598.399;564;15.00;52449.00
1724253598.448;564;15.00;52449.00
1724253598.500;564;15.00;52449.00
1724253598.550;600;15.00;56632.00
1724253598.600;600;15.00;56632.00
1724253598.649;600;15.00;56632.00
1724253598.699;600;15.00;56632.00
1724253598.749;562;15.00;52130.00
1724253598.799;562;15.00;52130.00
1724253598.850;562;15.00;52130.00
1724253598.899;562;15.00;52130.00
1724253598.950;542;15.00;49824.00
1724253599.000;542;15.00;49824.00
1724253599.050;542;15.00;49824.00
1724253599.099;550;15.00;50666.00
1724253599.150;563;15.00;52248.00
1724253599.200;563;15.00;52248.00
1724253599.249;565;15.00;52549.00
1724253599.299;580;15.00;54281.00
1724253599.349;580;15.00;54281.00
1724253599.400;580;15.00;54281.00
1724253599.450;554;15.00;51195.00
1724253599.500;544;15.00;49982.00
1724253599.549;506;15.00;45479.00
1724253599.599;506;15.00;45479.00
1724253599.649;506;15.00;45479.00
1724253599.699;571;15.00;53187.00
1724253607.388;531;15.00;48480.00
1724253607.438;578;15.00;54116.00
1724253607.488;578;15.00;54116.00
1724253607.538;578;15.00;54116.00
1724253607.588;594;15.00;55922.00
1724253607.638;586;15.00;55035.00
1724253607.688;586;15.00;55035.00
1724253607.738;527;15.00;47967.00
1724253607.788;600;15.00;56632.00
1724253607.838;600;15.00;56632.00
1724253607.891;600;15.00;56632.00
1724253607.940;563;15.00;52261.00
1724253607.990;565;15.00;52519.00
1724253608.040;565;15.00;52519.00
1724253608.090;565;15.00;52519.00
1724253608.140;570;15.00;53057.00
1724253608.190;566;15.00;52580.00
1724253608.240;545;15.00;50163.00
1724253608.290;545;15.00;50163.00
1724253608.339;595;15.00;56069.00
1724253608.389;550;15.00;50737.00
1724253608.439;584;15.00;54811.00
1724253608.489;584;15.00;54811.00
1724253608.540;599;15.00;56604.00
1724253608.590;545;15.00;50101.00
1724253608.640;545;15.00;50101.00
1724253608.690;545;15.00;50101.00
1724253608.740;597;15.00;56346.00
1724253608.790;597;15.00;56346.00
1724253608.840;597;15.00;56346.00
1724253608.890;553;15.00;51042.00
1724253608.940;555;15.00;51278.00
1724253608.990;555;15.00;51278.00
1724253609.041;568;15.00;52815.00
1724253609.091;580;15.00;54311.00
1724253609.141;580;15.00;54311.00
1724253609.191;580;15.00;54311.00
1724253609.243;580;15.00;54311.00
1724253609.291;549;15.00;50657.00
1724253609.341;538;15.00;49290.00
1724253609.391;538;15.00;49290.00
1724253609.440;551;15.00;50809.00
1724253609.490;561;15.00;52026.00
1724253609.540;561;15.00;52026.00
1724253609.590;561;15.00;52026.00
1724253609.640;592;15.00;55697.00
1724253609.690;542;15.00;49740.00
1724253609.740;542;15.00;49740.00
1724253609.791;542;15.00;49740.00
1724253609.841;600;15.00;56632.00
1724253609.891;600;15.00;56632.00
1724253609.941;600;15.00;56632.00
1724253609.991;537;15.00;49189.00
1724253610.041;554;15.00;51199.00
1724253610.091;554;15.00;51199.00
1724253610.140;554;15.00;51199.00
1724253610.190;576;15.00;53832.00
1724253610.240;552;15.00;50943.00
1724253610.291;552;15.00;50943.00
1724253610.341;548;15.00;50441.00
1724253610.391;567;15.00;52793.00
1724253610.441;567;15.00;52793.00
1724253610.491;567;15.00;52793.00
1724253610.541;549;15.00;50617.00
1724253610.591;549;15.00;50617.00
1724253610.640;523;15.00;47518.00
1724253610.690;523;15.00;47518.00
1724253610.740;572;15.00;53387.00
1724253610.790;551;15.00;50840.00
1724253610.840;551;15.00;50840.00
1724253610.890;551;15.00;50840.00
1724253610.941;560;15.00;51966.00
1724253610.991;545;15.00;50167.00
1724253611.041;545;15.00;50167.00
1724253611.091;545;15.00;50167.00
1724253611.141;600;15.00;56632.00
1724253611.192;600;15.00;56632.00
1724253611.242;600;15.00;56632.00
1724253611.292;571;15.00;53226.00
1724253611.342;600;15.00;56632.00
1724253611.392;600;15.00;56632.00
1724253611.442;539;15.00;49440.00
1724253611.492;532;15.00;48519.00
1724253611.542;532;15.00;48519.00
1724253611.592;544;15.00;49980.00
1724253611.642;543;15.00;49908.00
1724253611.692;543;15.00;49908.00
1724253611.742;596;15.00;56216.00
1724253611.792;553;15.00;51081.00
1724253611.842;553;15.00;51081.00
1724253611.892;553;15.00;51081.00
1724253611.942;553;15.00;51081.00
1724253611.992;600;15.00;56632.00
1724253612.042;548;15.00;50537.00
1724253612.092;548;15.00;50537.00
1724253612.142;560;15.00;51931.00
1724253612.192;563;15.00;52300.00
1724253612.242;522;15.00;47337.00
1724253612.292;522;15.00;47337.00
1724253612.345;551;15.00;50842.00
1724253612.391;600;15.00;56632.00
1724253612.441;600;15.00;56632.00
1724253612.491;600;15.00;56632.00
1724253612.541;587;15.00;55085.00
1724253612.592;598;15.00;56427.00
1724253612.642;598;15.00;56427.00
1724253612.693;598;15.00;56427.00
1724253612.743;598;15.00;56461.00
1724253696.357;466;10.00;40656.00
1724253696.407;600;10.00;56632.00
1724253696.457;600;10.00;56632.00
1724253696.507;548;10.00;50465.00
1724253696.557;548;10.00;50465.00
1724253696.607;600;10.00;56632.00
1724253696.658;541;10.00;49658.00
1724253696.708;529;10.00;48173.00
1724253696.758;529;10.00;48173.00
1724253696.808;595;10.00;56051.00
1724253696.858;559;10.00;51794.00
1724253696.908;600;10.00;56632.00
1724253696.958;600;10.00;56632.00
1724253697.008;559;10.00;51796.00
1724253697.058;558;10.00;51725.00
1724253697.108;543;10.00;49866.00
1724253697.158;543;10.00;49866.00
1724253697.208;543;10.00;49866.00
1724253697.258;552;10.00;50907.00
1724253697.308;554;10.00;51198.00
1724253697.358;554;10.00;51198.00
1724253697.408;554;10.00;51198.00
1724253697.458;556;10.00;51482.00
1724253697.508;526;10.00;47897.00
1724253697.558;526;10.00;47897.00
1724253697.608;526;10.00;47897.00
1724253697.658;568;10.00;52894.00
1724253697.708;559;10.00;51772.00
1724253697.758;559;10.00;51772.00
1724253697.808;559;10.00;51772.00
1724253697.858;566;10.00;52614.00
1724253697.908;526;10.00;47850.00
1724253697.958;526;10.00;47850.00
1724253698.009;526;10.00;47850.00
1724253698.058;553;10.00;51119.00
1724253698.108;563;10.00;52310.00
1724253698.158;563;10.00;52310.00
1724253698.209;563;10.00;52310.00
1724253698.259;550;10.00;50747.00
1724253698.309;584;10.00;54805.00
1724253698.360;584;10.00;54805.00
1724253698.409;584;10.00;54805.00
1724253698.459;567;10.00;52742.00
1724253698.509;599;10.00;56538.00
1724253698.559;599;10.00;56538.00
1724253698.609;599;10.00;56538.00
1724253698.659;565;10.00;52470.00
1724253698.709;598;10.00;56496.00
1724253698.759;598;10.00;56496.00
1724253698.809;598;10.00;56496.00
1724253698.859;556;10.00;51445.00
1724253698.909;572;10.00;53379.00
1724253698.959;572;10.00;53379.00
1724253699.009;537;10.00;49138.00
1724253699.059;600;10.00;56632.00
1724253699.109;600;10.00;56632.00
1724253699.159;600;10.00;56632.00
1724253699.209;591;10.00;55664.00
1724253699.259;571;10.00;53172.00
1724253699.309;582;10.00;54492.00
1724253699.359;582;10.00;54492.00
1724253699.409;576;10.00;53826.00
1724253699.460;600;10.00;56632.00
1724253699.510;600;10.00;56632.00
1724253699.560;600;10.00;56632.00
1724253699.610;549;10.00;50571.00
1724253699.660;538;10.00;49293.00
1724253699.710;538;10.00;49293.00
1724253699.760;538;10.00;49293.00
1724253699.811;558;10.00;51632.00
1724253699.862;547;10.00;50321.00
1724253699.910;537;10.00;49131.00
1724253699.961;537;10.00;49131.00
1724253700.011;583;10.00;54685.00
1724253700.061;560;10.00;51965.00
1724253700.110;560;10.00;51938.00
1724253700.160;560;10.00;51938.00
1724253700.210;600;10.00;56632.00
1724253700.260;550;10.00;50755.00
1724253700.310;544;10.00;49958.00
1724253700.360;544;10.00;49958.00
1724253700.410;536;10.00;49058.00
1724253700.460;595;10.00;56127.00
1724253700.510;594;10.00;56023.00
1724253700.560;594;10.00;56023.00
1724253700.611;594;10.00;56023.00
1724253700.661;590;10.00;55516.00
1724253700.711;600;10.00;56632.00
1724253700.761;600;10.00;56632.00
1724253700.812;600;10.00;56632.00
1724253700.862;600;10.00;56632.00
1724253700.912;561;10.00;52059.00
1724253700.962;561;10.00;52059.00
1724253701.012;561;10.00;52059.00
1724253701.062;548;10.00;50463.00
1724253701.112;597;10.00;56342.00
1724253701.162;597;10.00;56342.00
1724253701.212;597;10.00;56342.00
1724253701.262;568;10.00;52901.00
1724253701.312;565;10.00;52501.00
1724253701.362;565;10.00;52501.00
1724253701.412;565;10.00;52501.00
1724253701.462;548;10.00;50518.00
1724253701.512;558;10.00;51672.00
1724253701.562;558;10.00;51672.00
1724253701.612;558;10.00;51672.00
1724253701.662;553;10.00;51107.00
1724253701.712;557;10.00;51521.00
1724253701.762;557;10.00;51521.00
1724253701.812;557;10.00;51521.00
1724253701.861;557;10.00;51521.00
1724253701.913;532;10.00;48537.00
1724253701.962;521;10.00;47284.00
1724253702.012;521;10.00;47284.00
1724253702.062;521;10.00;47284.00
1724253702.112;600;10.00;56632.00
1724253702.162;547;10.00;50402.00
1724253702.212;547;10.00;50402.00
1724253702.262;547;10.00;50402.00
1724253702.312;556;10.00;51472.00
1724253710.027;573;10.00;53410.00
1724253710.076;571;10.00;53248.00
1724253710.126;571;10.00;53248.00
1724253710.177;571;10.00;53248.00
1724253710.227;545;10.00;50137.00
1724253710.277;578;10.00;54013.00
1724253710.327;578;10.00;54013.00
1724253710.377;578;10.00;54013.00
1724253710.427;572;10.00;53314.00
1724253710.477;542;10.00;49743.00
1724253710.527;542;10.00;49743.00
1724253710.577;542;10.00;49743.00
1724253710.627;549;10.00;50579.00
1724253710.677;561;10.00;52024.00
1724253710.727;561;10.00;52024.00
1724253710.777;561;10.00;52024.00
1724253710.827;549;10.00;50566.00
1724253710.877;551;10.00;50853.00
1724253710.927;551;10.00;50853.00
1724253710.977;551;10.00;50853.00
1724253711.027;549;10.00;50589.00
1724253711.077;579;10.00;54167.00
1724253711.128;579;10.00;54167.00
1724253711.178;579;10.00;54167.00
1724253711.228;577;10.00;53889.00
1724253711.278;544;10.00;50050.00
1724253711.328;544;10.00;50050.00
1724253711.378;544;10.00;50050.00
1724253711.428;558;10.00;51673.00
1724253711.478;594;10.00;55978.00
1724253711.529;594;10.00;55978.00
1724253711.579;594;10.00;55978.00
1724253711.629;593;10.00;55802.00
1724253711.679;543;10.00;49903.00
1724253711.729;588;10.00;55257.00
1724253711.779;588;10.00;55257.00
1724253711.828;588;10.00;55253.00
1724253711.878;557;10.00;51561.00
1724253711.928;600;10.00;56632.00
1724253711.978;600;10.00;56632.00
1724253712.029;600;10.00;56632.00
1724253712.078;548;10.00;50533.00
1724253712.129;566;10.00;52594.00
1724253712.179;566;10.00;52594.00
1724253712.229;555;10.00;51278.00
1724253712.279;542;10.00;49819.00
1724253712.329;577;10.00;53984.00
1724253712.379;577;10.00;53984.00
1724253712.429;577;10.00;53984.00
1724253712.479;577;10.00;53944.00
1724253712.529;498;10.00;44562.00
1724253712.580;498;10.00;44562.00
1724253712.630;498;10.00;44562.00
1724253712.680;600;10.00;56632.00
1724253712.730;546;10.00;50300.00
1724253712.780;546;10.00;50300.00
1724253712.830;546;10.00;50300.00
1724253712.880;596;10.00;56192.00
1724253712.930;600;10.00;56632.00
1724253712.981;600;10.00;56632.00
1724253713.031;552;10.00;50918.00
1724253713.081;550;10.00;50758.00
1724253713.131;550;10.00;50758.00
1724253713.181;550;10.00;50758.00
1724253713.231;542;10.00;49764.00
1724253713.282;556;10.00;51388.00
1724253713.332;552;10.00;50961.00
1724253713.382;552;10.00;50961.00
1724253713.432;548;10.00;50518.00
1724253713.481;552;10.00;50918.00
1724253713.532;529;10.00;48220.00
1724253713.581;529;10.00;48220.00
1724253713.632;540;10.00;49512.00
1724253713.682;592;10.00;55707.00
1724253713.732;568;10.00;52858.00
1724253713.782;568;10.00;52858.00
1724253713.831;600;10.00;56632.00
1724253713.881;563;10.00;52275.00
1724253713.932;563;10.00;52262.00
1724253713.982;563;10.00;52262.00
1724253714.033;555;10.00;51293.00
1724253714.083;595;10.00;56059.00
1724253714.133;545;10.00;50099.00
1724253714.212;545;10.00;50099.00
1724253714.233;545;10.00;50099.00
1724253714.283;600;10.00;56632.00
1724253714.332;600;10.00;56632.00
1724253714.382;600;10.00;56632.00
1724253714.433;548;10.00;50481.00
1724253714.483;541;10.00;49623.00
1724253714.534;526;10.00;47898.00
1724253714.583;526;10.00;47898.00
1724253714.633;600;10.00;56632.00
1724253714.683;600;10.00;56632.00
1724253714.733;584;10.00;54757.00
1724253714.783;584;10.00;54757.00
1724253714.833;600;10.00;56632.00
1724253714.884;598;10.00;56469.00
1724253714.934;546;10.00;50190.00
1724253714.984;546;10.00;50190.00
1724253715.034;546;10.00;50190.00
1724253715.084;589;10.00;55422.00
1724253715.134;551;10.00;50902.00
1724253715.184;551;10.00;50902.00
1724253715.234;551;10.00;50902.00
1724253715.284;577;10.00;53892.00
1724253715.334;541;10.00;49697.00
1724253715.384;541;10.00;49697.00
1724253715.434;541;10.00;49697.00
1724253715.485;557;10.00;51518.00
1724253715.536;557;10.00;51518.00
1724253715.586;557;10.00;51518.00
1724253715.636;557;10.00;51518.00
1724253715.691;562;10.00;52117.00
1724253715.738;540;10.00;49565.00
1724253715.788;540;10.00;49565.00
1724253715.838;540;10.00;49565.00
1724253715.888;560;10.00;51889.00
1724253723.334;600;10.00;56632.00
1724253723.384;553;10.00;51060.00
1724253723.434;579;10.00;54181.00
1724253723.484;579;10.00;54181.00
1724253723.537;579;10.00;54181.00
1724253723.587;574;10.00;53595.00
1724253723.637;552;10.00;50935.00
1724253723.687;552;10.00;50935.00
1724253723.738;590;10.00;55518.00
1724253723.788;516;10.00;46609.00
1724253723.838;579;10.00;54188.00
1724253723.888;579;10.00;54188.00
1724253723.938;600;10.00;56632.00
1724253723.988;538;10.00;49294.00
1724253724.038;543;10.00;49901.00
1724253724.088;543;10.00;49901.00
1724253724.139;575;10.00;53725.00
1724253724.188;550;10.00;50782.00
1724253724.238;584;10.00;54798.00
1724253724.289;584;10.00;54798.00
1724253724.339;558;10.00;51627.00
1724253724.388;596;10.00;56255.00
1724253724.438;596;10.00;56255.00
1724253724.489;596;10.00;56255.00
1724253724.539;547;10.00;50401.00
1724253724.589;576;10.00;53855.00
1724253724.639;576;10.00;53855.00
1724253724.688;576;10.00;53855.00
1724253724.738;576;10.00;53863.00
1724253724.789;545;10.00;50159.00
1724253724.839;545;10.00;50159.00
1724253724.889;545;10.00;50159.00
1724253724.939;539;10.00;49398.00
1724253724.989;548;10.00;50431.00
1724253725.039;511;10.00;46084.00
1724253725.089;511;10.00;46084.00
1724253725.138;545;10.00;50121.00
1724253725.188;528;10.00;48114.00
1724253725.239;549;10.00;50651.00
1724253725.290;549;10.00;50651.00
1724253725.340;513;10.00;46353.00
1724253725.390;599;10.00;56578.00
1724253725.440;594;10.00;55967.00
1724253725.491;594;10.00;55967.00
1724253725.540;594;10.00;55967.00
1724253725.591;549;10.00;50617.00
1724253725.640;552;10.00;50972.00
1724253725.691;552;10.00;50972.00
1724253725.740;552;10.00;50972.00
1724253725.790;558;10.00;51712.00
1724253725.840;558;10.00;51663.00
1724253725.890;558;10.00;51663.00
1724253725.940;547;10.00;50338.00
1724253725.991;557;10.00;51584.00
1724253726.041;588;10.00;55216.00
1724253726.091;588;10.00;55216.00
1724253726.141;588;10.00;55216.00
1724253726.192;537;10.00;49149.00
1724253726.242;563;10.00;52320.00
1724253726.292;563;10.00;52320.00
1724253726.342;563;10.00;52320.00
1724253726.398;551;10.00;50806.00
1724253726.445;551;10.00;50806.00
1724253726.495;549;10.00;50566.00
1724253726.544;549;10.00;50566.00
1724253726.595;549;10.00;50566.00
1724253726.645;544;10.00;50022.00
1724253726.695;562;10.00;52128.00
1724253726.745;562;10.00;52128.00
1724253726.795;562;10.00;52128.00
1724253726.845;552;10.00;50953.00
1724253726.895;558;10.00;51660.00
1724253726.945;558;10.00;51660.00
1724253726.995;558;10.00;51660.00
1724253727.046;540;10.00;49516.00
1724253727.095;596;10.00;56259.00
1724253727.145;596;10.00;56259.00
1724253727.195;596;10.00;56259.00
1724253727.245;597;10.00;56357.00
1724253727.295;551;10.00;50887.00
1724253727.345;551;10.00;50887.00
1724253727.395;551;10.00;50887.00
1724253727.445;551;10.00;50891.00
1724253727.495;541;10.00;49658.00
1724253727.545;541;10.00;49658.00
1724253727.595;541;10.00;49658.00
1724253727.645;600;10.00;56632.00
1724253727.695;556;10.00;51430.00
1724253727.745;556;10.00;51430.00
1724253727.795;556;10.00;51430.00
1724253727.845;563;10.00;52301.00
1724253727.895;539;10.00;49418.00
1724253727.945;539;10.00;49418.00
1724253727.995;539;10.00;49418.00
1724253728.045;519;10.00;47028.00
1724253728.095;539;10.00;49464.00
1724253728.145;541;10.00;49691.00
1724253728.195;541;10.00;49691.00
1724253728.245;541;10.00;49691.00
1724253728.295;600;10.00;56632.00
1724253728.345;550;10.00;50773.00
1724253728.395;550;10.00;50773.00
1724253728.446;550;10.00;50773.00
1724253728.496;596;10.00;56238.00
1724253728.545;529;10.00;48198.00
1724253728.595;529;10.00;48198.00
1724253728.645;529;10.00;48198.00
1724253728.695;545;10.00;50112.00
1724253728.745;562;10.00;52127.00
1724253728.795;562;10.00;52127.00
1724253728.846;549;10.00;50609.00
1724253728.897;551;10.00;50817.00
1724253728.947;551;10.00;50817.00
1724253728.997;551;10.00;50817.00
1724253729.046;555;10.00;51344.00
1724253729.096;557;10.00;51580.00
1724253729.146;557;10.00;51580.00
1724253729.196;557;10.00;51580.00
1724253729.246;562;10.00;52202.00
1724253729.296;595;10.00;56104.00
1724253755.027;513;10.00;46348.00
1724253755.077;568;10.00;52828.00
1724253755.128;571;10.00;53221.00
1724253755.177;571;10.00;53221.00
1724253755.228;590;10.00;55449.00
1724253755.278;546;10.00;50274.00
1724253755.328;546;10.00;50274.00
1724253755.378;546;10.00;50274.00
1724253755.428;596;10.00;56168.00
1724253755.478;596;10.00;56168.00
1724253755.528;596;10.00;56168.00
1724253755.579;547;10.00;50341.00
1724253755.628;547;10.00;50341.00
1724253755.678;547;10.00;50341.00
1724253755.728;572;10.00;53373.00
1724253755.778;559;10.00;51765.00
1724253755.829;559;10.00;51765.00
1724253755.879;559;10.00;51765.00
1724253755.928;541;10.00;49595.00
1724253755.979;527;10.00;47964.00
1724253756.029;527;10.00;47964.00
1724253756.079;568;10.00;52910.00
1724253756.128;600;10.00;56632.00
1724253756.178;600;10.00;56632.00
1724253756.228;600;10.00;56632.00
1724253756.278;567;10.00;52738.00
1724253756.329;559;10.00;51805.00
1724253756.379;559;10.00;51805.00
1724253756.429;559;10.00;51805.00
1724253756.479;600;10.00;56632.00
1724253756.528;562;10.00;52169.00
1724253756.578;562;10.00;52169.00
1724253756.628;534;10.00;48873.00
1724253756.678;595;10.00;56153.00
1724253756.729;576;10.00;53868.00
1724253756.779;576;10.00;53868.00
1724253756.830;576;10.00;53868.00
1724253756.880;540;10.00;49485.00
1724253756.930;600;10.00;56632.00
1724253756.980;600;10.00;56632.00
1724253757.030;600;10.00;56632.00
1724253757.080;549;10.00;50567.00
1724253757.130;540;10.00;49525.00
1724253757.180;540;10.00;49525.00
1724253757.229;588;10.00;55306.00
1724253757.280;578;10.00;54082.00
1724253757.330;578;10.00;54082.00
1724253757.380;578;10.00;54082.00
1724253757.430;559;10.00;51832.00
1724253757.480;544;10.00;50033.00
1724253757.530;544;10.00;50033.00
1724253757.580;551;10.00;50904.00
1724253757.630;550;10.00;50671.00
1724253757.680;550;10.00;50671.00
1724253757.731;550;10.00;50671.00
1724253757.783;562;10.00;52182.00
1724253757.834;567;10.00;52731.00
1724253757.884;541;10.00;49595.00
1724253757.934;541;10.00;49595.00
1724253757.984;580;10.00;54317.00
1724253758.034;556;10.00;51405.00
1724253758.084;556;10.00;51405.00
1724253758.133;556;10.00;51405.00
1724253758.183;562;10.00;52165.00
1724253758.234;538;10.00;49288.00
1724253758.284;538;10.00;49288.00
1724253758.333;538;10.00;49288.00
1724253758.383;561;10.00;52079.00
1724253758.433;538;10.00;49253.00
1724253758.483;538;10.00;49253.00
1724253758.533;562;10.00;52126.00
1724253758.584;577;10.00;53996.00
1724253758.634;577;10.00;53996.00
1724253758.684;577;10.00;53996.00
1724253758.734;548;10.00;50475.00
1724253758.785;560;10.00;51968.00
1724253758.834;560;10.00;51968.00
1724253758.884;565;10.00;52497.00
1724253758.934;555;10.00;51292.00
1724253758.984;555;10.00;51292.00
1724253759.034;555;10.00;51292.00
1724253759.084;557;10.00;51614.00
1724253759.134;541;10.00;49655.00
1724253759.184;541;10.00;49655.00
1724253759.234;541;10.00;49655.00
1724253759.284;541;10.00;49655.00
1724253759.334;572;10.00;53408.00
1724253759.384;572;10.00;53408.00
1724253759.434;572;10.00;53408.00
1724253759.484;572;10.00;53408.00
1724253759.534;598;10.00;56471.00
1724253759.584;598;10.00;56471.00
1724253759.635;598;10.00;56471.00
1724253759.685;557;10.00;51555.00
1724253759.735;578;10.00;54008.00
1724253759.785;578;10.00;54008.00
1724253759.835;568;10.00;52843.00
1724253759.885;599;10.00;56565.00
1724253759.935;520;10.00;47204.00
1724253759.986;520;10.00;47204.00
1724253760.035;563;10.00;52330.00
1724253760.085;543;10.00;49885.00
1724253760.135;543;10.00;49885.00
1724253760.185;543;10.00;49885.00
1724253760.235;547;10.00;50398.00
1724253760.285;547;10.00;50398.00
1724253760.334;547;10.00;50398.00
1724253760.384;600;10.00;56632.00
1724253767.351;531;10.00;48508.00
1724253767.401;554;10.00;51179.00
1724253767.451;541;10.00;49696.00
1724253767.501;541;10.00;49696.00
1724253767.551;485;10.00;42912.00
1724253767.601;590;10.00;55466.00
1724253767.651;590;10.00;55466.00
1724253767.701;590;10.00;55466.00
1724253767.751;593;10.00;55818.00
1724253767.801;554;10.00;51194.00
1724253767.851;554;10.00;51194.00
1724253767.901;595;10.00;56060.00
1724253767.951;542;10.00;49750.00
1724253768.001;542;10.00;49750.00
1724253768.051;542;10.00;49750.00
1724253768.101;596;10.00;56271.00
1724253768.151;596;10.00;56271.00
1724253768.202;596;10.00;56271.00
1724253768.252;547;10.00;50399.00
1724253768.302;600;10.00;56632.00
1724253768.352;600;10.00;56632.00
1724253768.401;600;10.00;56632.00
1724253768.452;555;10.00;51295.00
1724253768.502;561;10.00;51985.00
1724253768.552;561;10.00;51985.00
1724253768.602;548;10.00;50471.00
1724253768.652;530;10.00;48282.00
1724253768.701;530;10.00;48282.00
1724253768.752;530;10.00;48282.00
1724253768.802;557;10.00;51523.00
1724253768.852;557;10.00;51523.00
1724253768.902;557;10.00;51523.00
1724253768.952;545;10.00;50188.00
1724253769.002;562;10.00;52163.00
1724253769.052;562;10.00;52163.00
1724253769.102;562;10.00;52163.00
1724253769.152;541;10.00;49680.00
1724253769.202;541;10.00;49680.00
1724253769.252;541;10.00;49680.00
1724253769.302;600;10.00;56632.00
1724253769.352;537;10.00;49120.00
1724253769.402;537;10.00;49120.00
1724253769.453;551;10.00;50828.00
1724253769.503;586;10.00;55001.00
1724253769.553;586;10.00;55001.00
1724253769.603;586;10.00;55001.00
1724253769.653;563;10.00;52288.00
1724253769.703;555;10.00;51366.00
1724253769.753;555;10.00;51366.00
1724253769.803;555;10.00;51366.00
1724253769.852;540;10.00;49558.00
1724253769.903;540;10.00;49558.00
1724253769.953;540;10.00;49558.00
1724253770.003;553;10.00;51043.00
1724253770.053;539;10.00;49450.00
1724253770.103;561;10.00;51994.00
1724253770.153;561;10.00;51994.00
1724253770.203;561;10.00;51994.00
1724253770.253;600;10.00;56632.00
1724253770.303;559;10.00;51766.00
1724253770.353;559;10.00;51766.00
1724253770.403;559;10.00;51766.00
1724253770.453;560;10.00;51977.00
1724253770.503;551;10.00;50865.00
1724253770.553;551;10.00;50865.00
1724253770.603;551;10.00;50865.00
1724253770.653;536;10.00;49056.00
1724253770.703;584;10.00;54743.00
1724253770.753;584;10.00;54743.00
1724253770.803;584;10.00;54743.00
1724253770.854;594;10.00;55954.00
1724253770.904;594;10.00;55954.00
1724253770.954;594;10.00;55954.00
1724253771.004;587;10.00;55082.00
1724253771.054;540;10.00;49573.00
1724253771.103;540;10.00;49573.00
1724253771.153;540;10.00;49573.00
1724253771.203;538;10.00;49251.00
1724253771.253;574;10.00;53617.00
1724253771.303;574;10.00;53617.00
1724253771.353;600;10.00;56632.00
1724253771.404;600;10.00;56632.00
1724253771.454;545;10.00;50141.00
1724253771.504;545;10.00;50141.00
1724253771.553;545;10.00;50141.00
1724253771.604;535;10.00;48982.00
1724253771.654;539;10.00;49365.00
1724253771.705;539;10.00;49365.00
1724253771.755;539;10.00;49365.00
1724253771.804;548;10.00;50515.00
1724253771.854;541;10.00;49631.00
1724253771.904;541;10.00;49631.00
1724253771.954;541;10.00;49631.00
1724253772.004;594;10.00;55917.00
1724253772.054;530;10.00;48309.00
1724253772.104;530;10.00;48309.00
1724253772.154;530;10.00;48309.00
1724253772.205;543;10.00;49855.00
1724253772.255;545;10.00;50177.00
1724253772.305;545;10.00;50177.00
1724253772.354;544;10.00;49985.00
1724253772.405;588;10.00;55277.00
1724253772.455;588;10.00;55277.00
1724253772.508;588;10.00;55277.00
1724253772.555;567;10.00;52788.00
1724253772.605;598;10.00;56454.00
1724253772.655;598;10.00;56454.00
1724253772.707;598;10.00;56454.00
1724253772.756;559;10.00;51844.00
1724253772.806;559;10.00;51844.00
1724253779.735;580;10.00;54276.00
1724253779.784;553;10.00;51121.00
1724253779.834;555;10.00;51316.00
1724253779.884;527;10.00;47930.00
1724253779.934;527;10.00;47930.00
1724253779.985;527;10.00;47930.00
1724253780.035;591;10.00;55649.00
1724253780.085;543;10.00;49908.00
1724253780.135;543;10.00;49908.00
1724253780.185;576;10.00;53827.00
1724253780.235;541;10.00;49608.00
1724253780.285;551;10.00;50792.00
1724253780.335;551;10.00;50792.00
1724253780.384;549;10.00;50618.00
1724253780.434;597;10.00;56357.00
1724253780.484;597;10.00;56357.00
1724253780.534;597;10.00;56357.00
1724253780.584;557;10.00;51557.00
1724253780.634;562;10.00;52115.00
1724253780.684;562;10.00;52115.00
1724253780.735;562;10.00;52115.00
1724253780.784;555;10.00;51361.00
1724253780.834;532;10.00;48596.00
1724253780.884;532;10.00;48596.00
1724253780.936;532;10.00;48596.00
1724253780.986;573;10.00;53458.00
1724253781.036;540;10.00;49498.00
1724253781.086;540;10.00;49498.00
1724253781.136;540;10.00;49498.00
1724253781.185;573;10.00;53500.00
1724253781.235;570;10.00;53106.00
1724253781.285;570;10.00;53106.00
1724253781.335;570;10.00;53106.00
1724253781.385;568;10.00;52865.00
1724253781.435;600;10.00;56632.00
1724253781.485;600;10.00;56632.00
1724253781.535;600;10.00;56632.00
1724253781.585;578;10.00;54045.00
1724253781.635;578;10.00;54045.00
1724253781.685;578;10.00;54045.00
1724253781.736;591;10.00;55624.00
1724253781.786;586;10.00;55047.00
1724253781.836;586;10.00;55047.00
1724253781.886;586;10.00;55047.00
1724253781.937;564;10.00;52441.00
1724253781.987;548;10.00;50479.00
1724253782.037;548;10.00;50479.00
1724253782.087;548;10.00;50479.00
1724253782.137;576;10.00;53828.00
1724253782.187;576;10.00;53828.00
1724253782.237;576;10.00;53828.00
1724253782.287;538;10.00;49234.00
1724253782.337;538;10.00;49234.00
1724253782.387;538;10.00;49234.00
1724253782.437;600;10.00;56632.00
1724253782.487;600;10.00;56632.00
1724253782.537;600;10.00;56632.00
1724253782.587;528;10.00;48041.00
1724253782.637;540;10.00;49569.00
1724253782.687;540;10.00;49569.00
1724253782.737;540;10.00;49569.00
1724253782.786;562;10.00;52176.00
1724253782.837;562;10.00;52176.00
1724253782.887;562;10.00;52176.00
1724253782.938;523;10.00;47562.00
1724253782.988;559;10.00;51780.00
1724253783.038;559;10.00;51780.00
1724253783.088;559;10.00;51780.00
1724253783.138;552;10.00;50924.00
1724253783.188;552;10.00;50924.00
1724253783.238;552;10.00;50924.00
1724253783.287;546;10.00;50273.00
1724253783.337;546;10.00;50273.00
1724253783.387;546;10.00;50273.00
1724253783.437;555;10.00;51308.00
1724253783.487;595;10.00;56046.00
1724253783.537;595;10.00;56046.00
1724253783.587;580;10.00;54297.00
1724253783.637;579;10.00;54238.00
1724253783.687;579;10.00;54238.00
1724253783.738;579;10.00;54238.00
1724253783.788;545;10.00;50078.00
1724253783.838;562;10.00;52175.00
1724253783.888;562;10.00;52175.00
1724253783.938;562;10.00;52175.00
1724253783.988;552;10.00;50958.00
1724253784.038;492;10.00;43762.00
1724253784.088;492;10.00;43762.00
1724253784.138;492;10.00;43762.00
1724253784.188;570;10.00;53171.00
1724253784.238;591;10.00;55629.00
1724253784.288;591;10.00;55629.00
1724253784.339;591;10.00;55629.00
1724253784.389;552;10.00;50941.00
1724253784.439;552;10.00;50941.00
1724253784.489;552;10.00;50941.00
1724253784.539;566;10.00;52639.00
1724253784.588;566;10.00;52639.00
1724253784.638;566;10.00;52639.00
1724253784.688;594;10.00;56008.00
1724253784.738;560;10.00;51922.00
1724253784.788;560;10.00;51922.00
1724253784.838;560;10.00;51909.00
1724253784.889;566;10.00;52664.00
1724253784.939;566;10.00;52664.00
1724253784.990;566;10.00;52664.00
1724253785.041;549;10.00;50598.00
