UnixTimestamp;Microseconds;MilliAmpere;BaseValue
1724239695.240;200;5.00
1724239695.288;200;5.00
1724239695.339;200;5.00
1724239695.389;200;5.00
1724239695.439;200;5.00
1724239695.489;200;5.00
1724239695.539;200;5.00
1724239695.589;200;5.00
1724239695.639;200;5.00
1724239695.689;200;5.00
1724239695.739;200;5.00
1724239695.789;200;5.00
1724239695.839;200;5.00
1724239695.889;200;5.00
1724239695.939;200;5.00
1724239695.989;200;5.00
1724239696.039;200;5.00
1724239696.089;200;5.00
1724239696.139;200;5.00
1724239696.189;200;5.00
1724239696.239;200;5.00
1724239696.289;200;5.00
1724239696.339;200;5.00
1724239696.389;200;5.00
1724239710.695;400;28.00;6.00
1724239710.744;400;28.00;6.00
1724239710.794;400;27.00;83807.00
1724239710.844;400;27.00;83807.00
1724239710.895;400;27.00;2174.00
1724239710.945;400;28.00;35598.00
1724239710.995;400;28.00;35598.00
1724239711.045;400;28.00;35598.00
1724239711.095;400;28.00;51403.00
1724239711.145;400;28.00;43349.00
1724239711.195;400;28.00;43349.00
1724239711.245;400;28.00;18075.00
1724239711.295;400;27.00;91312.00
1724239711.345;400;27.00;91312.00
1724239711.395;400;27.00;91312.00
1724239711.445;400;28.00;8914.00
1724239711.494;400;28.00;43915.00
1724239711.545;400;28.00;43915.00
1724239711.595;400;28.00;18514.00
1724239711.645;400;28.00;22658.00
1724239711.695;400;28.00;22658.00
1724239711.745;400;28.00;6.00
1724239711.795;400;28.00;6.00
1724239711.845;400;28.00;6.00
1724239711.895;400;28.00;6.00
1724239711.944;400;28.00;55143.00
1724239711.994;400;28.00;55143.00
1724239712.044;400;28.00;55143.00
1724239712.094;400;28.00;48709.00
1724239712.145;400;28.00;6.00
1724239712.195;400;28.00;6.00
1724239712.245;400;28.00;6.00
1724239712.295;400;28.00;6.00
1724239712.345;400;28.00;40135.00
1724239712.395;400;28.00;32659.00
1724239712.445;400;28.00;32659.00
1724239712.495;400;28.00;32659.00
1724239712.546;400;27.00;85141.00
1724239712.596;400;28.00;6.00
1724239712.646;400;28.00;6.00
1724239712.696;400;28.00;6.00
1724239712.746;400;27.00;68683.00
1724239712.796;400;27.00;94228.00
1724239712.845;400;27.00;94228.00
1724239712.895;400;28.00;7922.00
1724239712.945;400;26.00;71447.00
1724239712.995;400;26.00;71447.00
1724239713.046;400;26.00;71447.00
1724239713.096;400;28.00;14713.00
1724239713.146;400;28.00;44233.00
1724239713.196;400;28.00;44233.00
1724239713.246;400;28.00;25518.00
1724239713.296;400;28.00;6.00
1724239713.346;400;28.00;6.00
1724239713.395;400;28.00;6.00
1724239713.446;400;28.00;32943.00
1724239713.496;400;28.00;41004.00
1724239713.546;400;28.00;41004.00
1724239713.596;400;28.00;41004.00
1724239713.646;400;26.00;32295.00
1724239713.696;400;25.00;72002.00
1724239713.746;400;25.00;72002.00
1724239713.796;400;28.00;426.00
1724239713.846;400;27.00;9156.00
1724239713.896;400;27.00;9156.00
1724239713.946;400;27.00;77683.00
1724239713.996;400;28.00;6.00
1724239714.046;400;28.00;6.00
1724239714.096;400;28.00;6.00
1724239714.146;400;28.00;6.00
1724239714.196;400;28.00;6.00
1724239714.246;400;28.00;6.00
1724239714.297;400;26.00;22234.00
1724239714.347;400;27.00;86711.00
1724239714.397;400;27.00;86711.00
1724239714.447;400;27.00;86711.00
1724239714.497;400;28.00;545.00
1724239714.547;400;27.00;4261.00
1724239714.597;400;27.00;4261.00
1724239714.647;400;27.00;18222.00
1724239714.697;400;28.00;6.00
1724239714.746;400;28.00;6.00
1724239714.796;400;28.00;6.00
1724239714.846;400;28.00;6.00
1724239714.896;400;28.00;6.00
1724239714.946;400;28.00;6.00
1724239714.996;400;28.00;6.00
1724239715.046;400;27.00;76996.00
1724239715.096;400;28.00;23579.00
1724239715.146;400;28.00;23579.00
1724239715.196;400;28.00;23579.00
1724239715.247;400;27.00;84969.00
1724239715.297;400;28.00;6.00
1724239715.347;400;28.00;6.00
1724239715.397;400;28.00;6.00
1724239715.447;400;28.00;6.00
1724239715.497;400;28.00;2228.00
1724239715.547;400;28.00;2228.00
1724239715.597;400;28.00;2228.00
1724239715.647;400;27.00;51396.00
1724239715.697;400;27.00;54439.00
1724239715.747;400;27.00;54439.00
1724239715.797;400;27.00;54439.00
1724239715.847;400;28.00;6.00
1724239715.898;400;28.00;6.00
1724239715.948;400;28.00;6.00
1724239715.998;400;28.00;6.00
1724239722.816;400;25.00;38645.00
1724239722.866;400;28.00;6.00
1724239722.916;400;28.00;6.00
1724239722.966;400;28.00;6.00
1724239723.016;400;28.00;26887.00
1724239723.066;400;28.00;26887.00
1724239723.116;400;28.00;26887.00
1724239723.166;400;28.00;3826.00
1724239723.216;400;28.00;3826.00
1724239723.267;400;28.00;3826.00
1724239723.317;400;27.00;73118.00
1724239723.367;400;27.00;73118.00
1724239723.417;400;27.00;73118.00
1724239723.468;400;28.00;58698.00
1724239723.518;400;28.00;58698.00
1724239723.568;400;28.00;58698.00
1724239723.618;400;27.00;86851.00
1724239723.668;400;28.00;6.00
1724239723.718;400;28.00;6.00
1724239723.768;400;28.00;425.00
1724239723.818;400;28.00;6.00
1724239723.867;400;28.00;6.00
1724239723.917;400;28.00;6.00
1724239723.967;400;28.00;6.00
1724239724.018;400;28.00;6.00
1724239724.068;400;28.00;6.00
1724239724.118;400;27.00;77568.00
1724239724.168;400;28.00;59265.00
1724239724.218;400;28.00;59265.00
1724239724.268;400;27.00;84117.00
1724239724.318;400;27.00;84117.00
1724239724.368;400;27.00;84117.00
1724239724.418;400;28.00;6.00
1724239724.468;400;28.00;13284.00
1724239724.518;400;28.00;13284.00
1724239724.567;400;24.00;56362.00
1724239724.617;400;26.00;44566.00
1724239724.667;400;26.00;44566.00
1724239724.717;400;26.00;44566.00
1724239724.768;400;27.00;76607.00
1724239724.818;400;27.00;76607.00
1724239724.868;400;27.00;76607.00
1724239724.918;400;27.00;7233.00
1724239724.968;400;28.00;58888.00
1724239725.025;400;28.00;58888.00
1724239725.068;400;28.00;6.00
1724239725.118;400;26.00;87324.00
1724239725.167;400;26.00;87324.00
1724239725.217;400;26.00;87324.00
1724239725.268;400;27.00;88412.00
1724239725.318;400;27.00;88412.00
1724239725.368;400;27.00;88412.00
1724239725.418;400;27.00;74744.00
1724239725.468;400;27.00;74744.00
1724239725.518;400;27.00;74744.00
1724239725.568;400;28.00;58696.00
1724239725.618;400;28.00;58696.00
1724239725.669;400;28.00;58696.00
1724239725.719;400;27.00;55713.00
1724239725.769;400;27.00;79033.00
1724239725.819;400;27.00;79033.00
1724239725.869;400;28.00;6.00
1724239725.919;400;27.00;90141.00
1724239725.969;400;27.00;90141.00
1724239726.019;400;27.00;90141.00
1724239726.069;400;28.00;6.00
1724239726.119;400;28.00;6.00
1724239726.169;400;28.00;22147.00
1724239726.219;400;28.00;6.00
1724239726.269;400;28.00;6.00
1724239726.319;400;28.00;6.00
1724239726.369;400;28.00;6.00
1724239726.419;400;28.00;6.00
1724239726.469;400;28.00;6.00
1724239726.519;400;28.00;6.00
1724239726.569;400;28.00;6.00
1724239726.619;400;28.00;6.00
1724239726.669;400;28.00;6.00
1724239726.719;400;28.00;25188.00
1724239726.769;400;28.00;55491.00
1724239726.819;400;28.00;55491.00
1724239726.869;400;28.00;19.00
1724239726.919;400;28.00;49613.00
1724239726.969;400;28.00;49613.00
1724239727.019;400;28.00;49613.00
1724239727.069;400;27.00;3839.00
1724239727.119;400;27.00;3839.00
1724239727.169;400;27.00;3839.00
1724239727.219;400;27.00;94595.00
1724239727.269;400;28.00;6.00
1724239727.319;400;28.00;6.00
1724239727.369;400;27.00;84285.00
1724239727.419;400;28.00;6.00
1724239727.469;400;28.00;6.00
1724239727.519;400;28.00;6.00
1724239727.569;400;28.00;57257.00
1724239734.264;400;28.00;6.00
1724239734.314;400;27.00;87868.00
1724239734.364;400;28.00;6.00
1724239734.414;400;28.00;6.00
1724239734.464;400;27.00;98145.00
1724239734.514;400;28.00;42987.00
1724239734.566;400;28.00;42987.00
1724239734.616;400;27.00;74781.00
1724239734.666;400;27.00;74781.00
1724239734.716;400;27.00;74781.00
1724239734.767;400;28.00;50087.00
1724239734.817;400;28.00;6.00
1724239734.867;400;28.00;6.00
1724239734.917;400;28.00;6.00
1724239734.967;400;28.00;21324.00
1724239735.017;400;28.00;21324.00
1724239735.066;400;28.00;6.00
1724239735.117;400;28.00;6.00
1724239735.166;400;28.00;6.00
1724239735.216;400;28.00;6.00
1724239735.266;400;27.00;73934.00
1724239735.316;400;27.00;73934.00
1724239735.366;400;27.00;73934.00
1724239735.416;400;28.00;1671.00
1724239735.466;400;27.00;59367.00
1724239735.516;400;27.00;59367.00
1724239735.566;400;27.00;78183.00
1724239735.616;400;27.00;78183.00
1724239735.666;400;27.00;78183.00
1724239735.716;400;28.00;16149.00
1724239735.767;400;28.00;16149.00
1724239735.817;400;28.00;16149.00
1724239735.867;400;28.00;6.00
1724239735.917;400;28.00;6.00
1724239735.967;400;28.00;6.00
1724239736.017;400;28.00;6.00
1724239736.067;400;28.00;6.00
1724239736.116;400;28.00;6.00
1724239736.166;400;28.00;39659.00
1724239736.216;400;28.00;6.00
1724239736.266;400;28.00;6.00
1724239736.316;400;28.00;6.00
1724239736.367;400;28.00;13404.00
1724239736.417;400;28.00;13404.00
1724239736.467;400;28.00;13404.00
1724239736.517;400;28.00;49259.00
1724239736.567;400;28.00;49259.00
1724239736.617;400;28.00;49259.00
1724239736.666;400;27.00;55861.00
1724239736.716;400;27.00;55861.00
1724239736.767;400;27.00;55861.00
1724239736.817;400;28.00;24267.00
1724239736.866;400;28.00;24267.00
1724239736.916;400;28.00;24267.00
1724239736.966;400;28.00;45008.00
1724239737.016;400;28.00;6.00
1724239737.066;400;28.00;6.00
1724239737.116;400;28.00;38389.00
1724239737.166;400;28.00;16981.00
1724239737.217;400;28.00;16981.00
1724239737.267;400;28.00;6.00
1724239737.317;400;27.00;98388.00
1724239737.367;400;27.00;98388.00
1724239737.417;400;27.00;98388.00
1724239737.467;400;28.00;22097.00
1724239737.517;400;28.00;22097.00
1724239737.568;400;28.00;22097.00
1724239737.618;400;28.00;6.00
1724239737.667;400;27.00;78548.00
1724239737.717;400;27.00;78548.00
1724239737.767;400;28.00;16566.00
1724239737.817;400;27.00;54811.00
1724239737.868;400;27.00;54811.00
1724239737.918;400;27.00;54811.00
1724239737.968;400;24.00;82673.00
1724239738.018;400;24.00;82673.00
1724239738.068;400;24.00;82673.00
1724239738.119;400;28.00;1368.00
1724239738.169;400;28.00;3074.00
1724239738.219;400;28.00;3074.00
1724239738.269;400;28.00;14151.00
1724239738.319;400;28.00;6.00
1724239738.369;400;28.00;6.00
1724239738.418;400;27.00;83842.00
1724239738.469;400;27.00;2458.00
1724239738.519;400;27.00;2458.00
1724239738.569;400;28.00;6.00
1724239738.619;400;27.00;57308.00
1724239738.668;400;27.00;57308.00
1724239738.718;400;27.00;57308.00
1724239738.768;400;27.00;55446.00
1724239738.818;400;27.00;55446.00
1724239738.868;400;27.00;55446.00
1724239738.918;400;28.00;58027.00
1724239752.040;501;15.00;44856.00
1724239752.090;585;15.00;54898.00
1724239752.141;600;15.00;56615.00
1724239752.191;600;15.00;56615.00
1724239752.241;600;15.00;56615.00
1724239752.291;600;15.00;56615.00
1724239752.342;600;15.00;56615.00
1724239752.392;600;15.00;56615.00
1724239752.442;600;15.00;56615.00
1724239752.492;565;15.00;52478.00
1724239752.542;565;15.00;52478.00
1724239752.591;565;15.00;52478.00
1724239752.641;586;15.00;54994.00
1724239752.691;598;15.00;56392.00
1724239752.741;598;15.00;56392.00
1724239752.791;598;15.00;56392.00
1724239752.841;580;15.00;54321.00
1724239752.891;580;15.00;54321.00
1724239752.941;580;15.00;54321.00
1724239752.991;581;15.00;54455.00
1724239753.041;581;15.00;54455.00
1724239753.091;581;15.00;54455.00
1724239753.142;577;15.00;53950.00
1724239753.192;577;15.00;53939.00
1724239753.242;577;15.00;53939.00
1724239753.292;577;15.00;53939.00
1724239753.342;600;15.00;56615.00
1724239753.392;600;15.00;56615.00
1724239753.443;600;15.00;56615.00
1724239753.493;590;15.00;55497.00
1724239753.543;600;15.00;56615.00
1724239753.592;600;15.00;56615.00
1724239753.642;589;15.00;55371.00
1724239753.694;592;15.00;55762.00
1724239753.743;592;15.00;55762.00
1724239753.793;592;15.00;55762.00
1724239753.843;598;15.00;56431.00
1724239753.893;598;15.00;56431.00
1724239753.943;598;15.00;56431.00
1724239753.993;573;15.00;53409.00
1724239754.043;586;15.00;55049.00
1724239754.093;586;15.00;55049.00
1724239754.143;586;15.00;55049.00
1724239754.193;600;15.00;56615.00
1724239754.243;600;15.00;56615.00
1724239754.293;600;15.00;56615.00
1724239754.343;583;15.00;54642.00
1724239754.393;577;15.00;53972.00
1724239754.443;577;15.00;53972.00
1724239754.494;577;15.00;53972.00
1724239754.544;590;15.00;55537.00
1724239754.594;581;15.00;54452.00
1724239754.644;581;15.00;54452.00
1724239754.693;581;15.00;54452.00
1724239754.744;598;15.00;56449.00
1724239754.793;598;15.00;56449.00
1724239754.843;598;15.00;56449.00
1724239754.895;600;15.00;56615.00
1724239754.945;576;15.00;53865.00
1724239754.995;576;15.00;53865.00
1724239755.044;576;15.00;53865.00
1724239755.094;590;15.00;55441.00
1724239755.144;590;15.00;55492.00
1724239755.194;590;15.00;55492.00
1724239755.245;590;15.00;55492.00
1724239755.295;579;15.00;54146.00
1724239755.345;578;15.00;54031.00
1724239755.395;578;15.00;54031.00
1724239755.445;578;15.00;54031.00
1724239755.495;593;15.00;55875.00
1724239755.545;586;15.00;54949.00
1724239755.594;586;15.00;54949.00
1724239755.644;587;15.00;55141.00
1724239755.694;600;15.00;56615.00
1724239755.744;600;15.00;56615.00
1724239755.795;600;15.00;56615.00
1724239755.846;576;15.00;53860.00
1724239755.896;574;15.00;53603.00
1724239755.946;574;15.00;53603.00
1724239755.996;574;15.00;53603.00
1724239756.046;577;15.00;53884.00
1724239756.096;577;15.00;53884.00
1724239756.146;577;15.00;53884.00
1724239756.197;586;15.00;55016.00
1724239756.247;600;15.00;56615.00
1724239756.297;600;15.00;56615.00
1724239756.347;600;15.00;56615.00
1724239756.397;600;15.00;56615.00
1724239756.447;600;15.00;56615.00
1724239756.497;600;15.00;56615.00
1724239756.547;597;15.00;56326.00
1724239756.597;600;15.00;56615.00
1724239756.647;600;15.00;56615.00
1724239756.696;600;15.00;56615.00
1724239756.746;578;15.00;54102.00
1724239756.796;578;15.00;54102.00
1724239756.847;578;15.00;54102.00
1724239756.897;572;15.00;53311.00
1724239756.947;572;15.00;53325.00
1724239756.997;572;15.00;53325.00
1724239757.047;572;15.00;53325.00
1724239757.097;581;15.00;54439.00
1724239757.147;600;15.00;56615.00
1724239757.196;600;15.00;56615.00
1724239757.246;600;15.00;56615.00
1724239757.296;587;15.00;55096.00
1724239764.529;595;15.00;56111.00
1724239764.579;582;15.00;54577.00
1724239764.629;600;15.00;56615.00
1724239764.679;600;15.00;56615.00
1724239764.729;564;15.00;52354.00
1724239764.779;586;15.00;54987.00
1724239764.829;586;15.00;54987.00
1724239764.879;575;15.00;53679.00
1724239764.929;600;15.00;56615.00
1724239764.979;600;15.00;56615.00
1724239765.029;600;15.00;56615.00
1724239765.079;600;15.00;56615.00
1724239765.129;600;15.00;56615.00
1724239765.180;600;15.00;56615.00
1724239765.228;600;15.00;56615.00
1724239765.278;600;15.00;56615.00
1724239765.328;600;15.00;56615.00
1724239765.378;600;15.00;56615.00
1724239765.428;600;15.00;56615.00
1724239765.478;567;15.00;52748.00
1724239765.528;567;15.00;52748.00
1724239765.578;567;15.00;52748.00
1724239765.629;579;15.00;54193.00
1724239765.679;584;15.00;54776.00
1724239765.729;584;15.00;54776.00
1724239765.778;590;15.00;55492.00
1724239765.828;586;15.00;55052.00
1724239765.878;586;15.00;55052.00
1724239765.928;586;15.00;55052.00
1724239765.978;598;15.00;56484.00
1724239766.028;598;15.00;56484.00
1724239766.078;598;15.00;56484.00
1724239766.128;600;15.00;56615.00
1724239766.178;586;15.00;54979.00
1724239766.228;586;15.00;54979.00
1724239766.279;583;15.00;54626.00
1724239766.329;582;15.00;54552.00
1724239766.380;582;15.00;54552.00
1724239766.430;582;15.00;54552.00
1724239766.480;576;15.00;53790.00
1724239766.530;580;15.00;54287.00
1724239766.581;580;15.00;54287.00
1724239766.631;600;15.00;56615.00
1724239766.681;600;15.00;56615.00
1724239766.731;600;15.00;56615.00
1724239766.781;600;15.00;56615.00
1724239766.831;600;15.00;56615.00
1724239766.881;600;15.00;56615.00
1724239766.931;600;15.00;56615.00
1724239766.981;600;15.00;56615.00
1724239767.031;600;15.00;56615.00
1724239767.081;600;15.00;56615.00
1724239767.131;577;15.00;53965.00
1724239767.181;593;15.00;55808.00
1724239767.231;593;15.00;55808.00
1724239767.281;599;15.00;56522.00
1724239767.332;600;15.00;56615.00
1724239767.382;600;15.00;56615.00
1724239767.432;580;15.00;54323.00
1724239767.482;589;15.00;55374.00
1724239767.532;589;15.00;55374.00
1724239767.582;583;15.00;54591.00
1724239767.632;600;15.00;56615.00
1724239767.682;578;15.00;54043.00
1724239767.732;578;15.00;54043.00
1724239767.783;600;15.00;56615.00
1724239767.833;590;15.00;55504.00
1724239767.883;590;15.00;55504.00
1724239767.933;589;15.00;55375.00
1724239767.983;600;15.00;56615.00
1724239768.033;600;15.00;56615.00
1724239768.083;600;15.00;56615.00
1724239768.133;593;15.00;55851.00
1724239768.183;593;15.00;55851.00
1724239768.233;593;15.00;55851.00
1724239768.283;598;15.00;56388.00
1724239768.333;598;15.00;56388.00
1724239768.382;598;15.00;56388.00
1724239768.433;586;15.00;55001.00
1724239768.483;573;15.00;53440.00
1724239768.533;573;15.00;53440.00
1724239768.583;564;15.00;52354.00
1724239768.633;600;15.00;56615.00
1724239768.683;600;15.00;56615.00
1724239768.733;600;15.00;56615.00
1724239768.784;600;15.00;56615.00
1724239768.833;600;15.00;56615.00
1724239768.882;600;15.00;56615.00
1724239768.932;583;15.00;54648.00
1724239768.982;583;15.00;54648.00
1724239769.032;583;15.00;54648.00
1724239769.082;600;15.00;56615.00
1724239769.133;600;15.00;56615.00
1724239769.183;600;15.00;56615.00
1724239769.233;590;15.00;55459.00
1724239776.600;600;15.00;56615.00
1724239776.650;594;15.00;56015.00
1724239776.700;594;15.00;56015.00
1724239776.750;594;15.00;56015.00
1724239776.799;587;15.00;55122.00
1724239776.850;587;15.00;55122.00
1724239776.900;587;15.00;55122.00
1724239776.950;596;15.00;56197.00
1724239777.000;600;15.00;56615.00
1724239777.050;600;15.00;56615.00
1724239777.100;589;15.00;55406.00
1724239777.150;591;15.00;55638.00
1724239777.200;591;15.00;55638.00
1724239777.251;600;15.00;56615.00
1724239777.301;597;15.00;56298.00
1724239777.351;597;15.00;56298.00
1724239777.401;598;15.00;56475.00
1724239777.451;579;15.00;54206.00
1724239777.501;579;15.00;54206.00
1724239777.551;579;15.00;54206.00
1724239777.601;583;15.00;54676.00
1724239777.651;583;15.00;54676.00
1724239777.701;583;15.00;54676.00
1724239777.751;575;15.00;53634.00
1724239777.801;575;15.00;53634.00
1724239777.851;575;15.00;53634.00
1724239777.901;600;15.00;56615.00
1724239777.951;600;15.00;56615.00
1724239778.001;600;15.00;56615.00
1724239778.051;600;15.00;56615.00
1724239778.102;600;15.00;56615.00
1724239778.152;600;15.00;56615.00
1724239778.204;580;15.00;54339.00
1724239778.254;573;15.00;53400.00
1724239778.304;573;15.00;53400.00
1724239778.355;582;15.00;54555.00
1724239778.405;587;15.00;55102.00
1724239778.455;587;15.00;55102.00
1724239778.505;587;15.00;55102.00
1724239778.555;586;15.00;54988.00
1724239778.605;586;15.00;54988.00
1724239778.655;586;15.00;54988.00
1724239778.704;589;15.00;55336.00
1724239778.754;589;15.00;55336.00
1724239778.805;589;15.00;55336.00
1724239778.854;592;15.00;55713.00
1724239778.904;592;15.00;55713.00
1724239778.955;592;15.00;55713.00
1724239779.005;571;15.00;53269.00
1724239779.054;571;15.00;53269.00
1724239779.104;571;15.00;53269.00
1724239779.154;571;15.00;53269.00
1724239779.204;600;15.00;56615.00
1724239779.254;600;15.00;56615.00
1724239779.304;600;15.00;56615.00
1724239779.354;600;15.00;56615.00
1724239779.405;594;15.00;56005.00
1724239779.454;594;15.00;56005.00
1724239779.505;600;15.00;56615.00
1724239779.555;600;15.00;56615.00
1724239779.605;600;15.00;56615.00
1724239779.655;600;15.00;56615.00
1724239779.706;587;15.00;55137.00
1724239779.756;572;15.00;53297.00
1724239779.806;572;15.00;53297.00
1724239779.856;589;15.00;55337.00
1724239779.905;570;15.00;53136.00
1724239779.955;570;15.00;53136.00
1724239780.005;570;15.00;53136.00
1724239780.055;565;15.00;52448.00
1724239780.106;565;15.00;52448.00
1724239780.156;565;15.00;52448.00
1724239780.206;594;15.00;55951.00
1724239780.256;576;15.00;53775.00
1724239780.306;576;15.00;53775.00
1724239780.357;568;15.00;52823.00
1724239780.406;586;15.00;54979.00
1724239780.456;586;15.00;54979.00
1724239780.506;600;15.00;56615.00
1724239780.556;590;15.00;55445.00
1724239780.606;590;15.00;55445.00
1724239780.656;589;15.00;55386.00
1724239780.706;593;15.00;55846.00
1724239780.756;593;15.00;55846.00
1724239780.806;598;15.00;56487.00
1724239780.856;590;15.00;55502.00
1724239780.906;590;15.00;55502.00
1724239780.956;590;15.00;55502.00
1724239781.007;600;15.00;56615.00
1724239781.057;600;15.00;56615.00
1724239781.107;600;15.00;56615.00
1724239781.158;598;15.00;56404.00
1724239781.207;574;15.00;53627.00
1724239781.257;574;15.00;53627.00
1724239781.307;574;15.00;53627.00
1724239781.357;573;15.00;53498.00
1724239837.044;529;20.00;48240.00
1724239837.094;571;20.00;53256.00
1724239837.144;600;20.00;56615.00
1724239837.194;600;20.00;56615.00
1724239837.244;600;20.00;56615.00
1724239837.344;582;20.00;54479.00
1724239837.394;582;20.00;54479.00
1724239837.444;582;20.00;54479.00
1724239837.494;568;20.00;52801.00
1724239837.544;590;20.00;55532.00
1724239837.594;590;20.00;55532.00
1724239837.644;588;20.00;55299.00
1724239837.694;579;20.00;54178.00
1724239837.743;579;20.00;54178.00
1724239837.793;579;20.00;54178.00
1724239837.843;578;20.00;54073.00
1724239837.893;583;20.00;54590.00
1724239837.943;583;20.00;54590.00
1724239837.993;583;20.00;54590.00
1724239838.043;596;20.00;56192.00
1724239838.093;596;20.00;56192.00
1724239838.143;596;20.00;56192.00
1724239838.193;569;20.00;53032.00
1724239838.246;594;20.00;55943.00
1724239838.294;594;20.00;55943.00
1724239838.344;589;20.00;55405.00
1724239838.394;593;20.00;55789.00
1724239838.444;593;20.00;55789.00
1724239838.494;593;20.00;55789.00
1724239838.544;572;20.00;53287.00
1724239838.594;600;20.00;56615.00
1724239838.645;600;20.00;56615.00
1724239838.694;600;20.00;56615.00
1724239838.746;572;20.00;53332.00
1724239838.796;572;20.00;53332.00
1724239838.846;572;20.00;53332.00
1724239838.896;585;20.00;54859.00
1724239838.946;600;20.00;56615.00
1724239838.996;600;20.00;56615.00
1724239839.046;598;20.00;56379.00
1724239839.096;596;20.00;56200.00
1724239839.146;596;20.00;56200.00
1724239839.196;596;20.00;56200.00
1724239839.246;577;20.00;53893.00
1724239839.296;577;20.00;53893.00
1724239839.346;577;20.00;53893.00
1724239839.396;577;20.00;53893.00
1724239839.446;600;20.00;56615.00
1724239839.496;600;20.00;56615.00
1724239839.546;600;20.00;56615.00
1724239839.596;600;20.00;56615.00
1724239839.646;600;20.00;56615.00
1724239839.696;600;20.00;56615.00
1724239839.746;600;20.00;56615.00
1724239839.796;592;20.00;55719.00
1724239839.846;592;20.00;55719.00
1724239839.896;592;20.00;55719.00
1724239839.946;600;20.00;56615.00
1724239839.996;600;20.00;56615.00
1724239840.046;600;20.00;56615.00
1724239840.096;596;20.00;56253.00
1724239840.146;596;20.00;56253.00
1724239840.196;596;20.00;56253.00
1724239840.246;591;20.00;55615.00
1724239840.297;600;20.00;56615.00
1724239840.347;600;20.00;56615.00
1724239840.397;600;20.00;56615.00
1724239840.447;582;20.00;54495.00
1724239840.497;582;20.00;54495.00
1724239840.547;582;20.00;54495.00
1724239840.597;581;20.00;54362.00
1724239840.647;593;20.00;55809.00
1724239840.697;593;20.00;55809.00
1724239840.747;593;20.00;55809.00
1724239840.797;600;20.00;56615.00
1724239840.847;581;20.00;54420.00
1724239840.896;581;20.00;54420.00
1724239840.946;600;20.00;56615.00
1724239840.996;571;20.00;53250.00
1724239841.046;571;20.00;53250.00
1724239841.097;571;20.00;53250.00
1724239841.147;594;20.00;55949.00
1724239841.197;600;20.00;56615.00
1724239841.247;600;20.00;56615.00
1724239841.296;600;20.00;56615.00
1724239841.346;600;20.00;56615.00
1724239841.396;600;20.00;56615.00
1724239841.446;600;20.00;56615.00
1724239841.496;580;20.00;54299.00
1724239841.546;600;20.00;56615.00
1724239841.596;600;20.00;56615.00
1724239841.646;590;20.00;55457.00
1724239841.696;600;20.00;56615.00
1724239841.746;600;20.00;56615.00
1724239841.796;600;20.00;56615.00
1724239841.846;587;20.00;55110.00
1724239841.896;598;20.00;56392.00
1724239841.946;598;20.00;56392.00
1724239841.996;598;20.00;56392.00
1724239842.046;600;20.00;56615.00
1724239842.096;600;20.00;56615.00
1724239842.146;600;20.00;56615.00
1724239842.196;590;20.00;55507.00
1724239849.347;597;20.00;56364.00
1724239849.397;599;20.00;56512.00
1724239849.447;600;20.00;56615.00
1724239849.497;600;20.00;56615.00
1724239849.548;572;20.00;53333.00
1724239849.598;600;20.00;56615.00
1724239849.648;600;20.00;56615.00
1724239849.698;600;20.00;56615.00
1724239849.749;578;20.00;54064.00
1724239849.799;578;20.00;54064.00
1724239849.848;578;20.00;54064.00
1724239849.899;600;20.00;56615.00
1724239849.949;600;20.00;56615.00
1724239849.999;600;20.00;56615.00
1724239850.050;562;20.00;52195.00
1724239850.099;591;20.00;55602.00
1724239850.149;591;20.00;55602.00
1724239850.199;591;20.00;55602.00
1724239850.249;600;20.00;56615.00
1724239850.299;590;20.00;55508.00
1724239850.349;590;20.00;55508.00
1724239850.399;590;20.00;55508.00
1724239850.449;583;20.00;54651.00
1724239850.499;580;20.00;54300.00
1724239850.549;580;20.00;54300.00
1724239850.599;580;20.00;54300.00
1724239850.649;576;20.00;53854.00
1724239850.700;576;20.00;53854.00
1724239850.750;576;20.00;53854.00
1724239850.800;588;20.00;55303.00
1724239850.850;578;20.00;54030.00
1724239850.900;578;20.00;54030.00
1724239850.950;596;20.00;56241.00
1724239851.000;595;20.00;56086.00
1724239851.050;595;20.00;56086.00
1724239851.100;595;20.00;56086.00
1724239851.150;574;20.00;53548.00
1724239851.200;572;20.00;53303.00
1724239851.250;572;20.00;53303.00
1724239851.300;572;20.00;53303.00
1724239851.349;570;20.00;53105.00
1724239851.399;600;20.00;56615.00
1724239851.450;600;20.00;56615.00
1724239851.500;600;20.00;56615.00
1724239851.555;600;20.00;56615.00
1724239851.602;587;20.00;55098.00
1724239851.652;587;20.00;55098.00
1724239851.702;587;20.00;55098.00
1724239851.752;589;20.00;55369.00
1724239851.802;583;20.00;54610.00
1724239851.853;583;20.00;54610.00
1724239851.903;583;20.00;54610.00
1724239851.952;572;20.00;53336.00
1724239852.002;572;20.00;53336.00
1724239852.052;572;20.00;53336.00
1724239852.103;575;20.00;53751.00
1724239852.153;582;20.00;54519.00
1724239852.203;582;20.00;54519.00
1724239852.253;582;20.00;54519.00
1724239852.303;593;20.00;55812.00
1724239852.353;593;20.00;55812.00
1724239852.403;593;20.00;55812.00
1724239852.452;587;20.00;55125.00
1724239852.502;587;20.00;55125.00
1724239852.552;587;20.00;55125.00
1724239852.602;574;20.00;53579.00
1724239852.652;584;20.00;54811.00
1724239852.702;584;20.00;54811.00
1724239852.753;592;20.00;55677.00
1724239852.803;600;20.00;56615.00
1724239852.853;600;20.00;56615.00
1724239852.903;600;20.00;56615.00
1724239852.953;598;20.00;56468.00
1724239853.003;600;20.00;56615.00
1724239853.053;600;20.00;56615.00
1724239853.103;600;20.00;56615.00
1724239853.152;577;20.00;53988.00
1724239853.203;600;20.00;56615.00
1724239853.253;600;20.00;56615.00
1724239853.303;600;20.00;56615.00
1724239853.353;586;20.00;54979.00
1724239853.403;594;20.00;55940.00
1724239853.453;594;20.00;55940.00
1724239853.504;594;20.00;55940.00
1724239853.554;600;20.00;56615.00
1724239853.604;600;20.00;56615.00
1724239853.654;600;20.00;56615.00
1724239853.704;584;20.00;54730.00
1724239853.754;584;20.00;54730.00
1724239853.804;584;20.00;54730.00
1724239853.853;600;20.00;56615.00
1724239853.903;573;20.00;53416.00
1724239853.953;573;20.00;53416.00
1724239854.003;573;20.00;53416.00
1724239854.053;600;20.00;56615.00
1724239854.103;600;20.00;56615.00
1724239854.155;600;20.00;56615.00
1724239854.205;583;20.00;54705.00
1724239854.255;600;20.00;56615.00
1724239854.305;600;20.00;56615.00
1724239854.355;581;20.00;54447.00
1724239854.405;600;20.00;56615.00
1724239854.455;600;20.00;56615.00
1724239854.505;600;20.00;56615.00
1724239854.555;580;20.00;54266.00
1724239861.444;516;20.00;46672.00
1724239861.494;576;20.00;53766.00
1724239861.545;576;20.00;53766.00
1724239861.595;576;20.00;53766.00
1724239861.645;590;20.00;55485.00
1724239861.695;581;20.00;54433.00
1724239861.745;581;20.00;54433.00
1724239861.795;581;20.00;54433.00
1724239861.845;581;20.00;54397.00
1724239861.895;570;20.00;53126.00
1724239861.945;570;20.00;53126.00
1724239861.995;569;20.00;53000.00
1724239862.045;566;20.00;52602.00
1724239862.095;566;20.00;52602.00
1724239862.145;584;20.00;54755.00
1724239862.195;569;20.00;53019.00
1724239862.245;569;20.00;53019.00
1724239862.295;569;20.00;53019.00
1724239862.346;581;20.00;54397.00
1724239862.396;595;20.00;56019.00
1724239862.446;595;20.00;56019.00
1724239862.496;595;20.00;56019.00
1724239862.546;600;20.00;56615.00
1724239862.596;600;20.00;56615.00
1724239862.646;600;20.00;56615.00
1724239862.696;581;20.00;54444.00
1724239862.745;600;20.00;56615.00
1724239862.795;600;20.00;56615.00
1724239862.846;600;20.00;56615.00
1724239862.896;581;20.00;54452.00
1724239862.946;581;20.00;54452.00
1724239862.996;581;20.00;54452.00
1724239863.046;600;20.00;56615.00
1724239863.096;600;20.00;56615.00
1724239863.146;600;20.00;56615.00
1724239863.196;589;20.00;55321.00
1724239863.246;577;20.00;53944.00
1724239863.296;577;20.00;53944.00
1724239863.346;577;20.00;53944.00
1724239863.396;575;20.00;53719.00
1724239863.446;571;20.00;53211.00
1724239863.496;571;20.00;53211.00
1724239863.547;571;20.00;53211.00
1724239863.597;595;20.00;56034.00
1724239863.647;600;20.00;56615.00
1724239863.696;572;20.00;53343.00
1724239863.747;572;20.00;53343.00
1724239863.796;572;20.00;53343.00
1724239863.846;593;20.00;55810.00
1724239863.897;588;20.00;55239.00
1724239863.946;588;20.00;55239.00
1724239863.996;588;20.00;55239.00
1724239864.046;580;20.00;54231.00
1724239864.096;577;20.00;53970.00
1724239864.146;577;20.00;53970.00
1724239864.196;577;20.00;53970.00
1724239864.246;582;20.00;54583.00
1724239864.296;583;20.00;54679.00
1724239864.350;583;20.00;54679.00
1724239864.397;594;20.00;56000.00
1724239864.447;576;20.00;53846.00
1724239864.497;576;20.00;53846.00
1724239864.547;576;20.00;53846.00
1724239864.597;594;20.00;55935.00
1724239864.647;600;20.00;56615.00
1724239864.697;600;20.00;56615.00
1724239864.747;581;20.00;54389.00
1724239864.797;600;20.00;56615.00
1724239864.847;600;20.00;56615.00
1724239864.897;600;20.00;56615.00
1724239864.947;600;20.00;56615.00
1724239864.997;596;20.00;56154.00
1724239865.047;596;20.00;56154.00
1724239865.097;600;20.00;56615.00
1724239865.147;598;20.00;56488.00
1724239865.198;598;20.00;56488.00
1724239865.248;569;20.00;53030.00
1724239865.298;560;20.00;51867.00
1724239865.348;560;20.00;51867.00
1724239865.398;560;20.00;51867.00
1724239865.448;571;20.00;53199.00
1724239865.498;600;20.00;56615.00
1724239865.548;600;20.00;56615.00
1724239865.598;600;20.00;56615.00
1724239865.648;600;20.00;56615.00
1724239865.698;600;20.00;56615.00
1724239865.747;600;20.00;56615.00
1724239865.797;600;20.00;56615.00
1724239865.849;599;20.00;56556.00
1724239865.899;599;20.00;56556.00
1724239865.949;599;20.00;56556.00
1724239865.999;578;20.00;54048.00
1724239866.049;600;20.00;56615.00
1724239866.099;600;20.00;56615.00
1724239866.149;585;20.00;54926.00
1724239866.199;566;20.00;52624.00
1724239866.249;566;20.00;52624.00
1724239866.299;566;20.00;52624.00
1724239866.349;578;20.00;54109.00
1724239866.399;591;20.00;55647.00
1724239866.448;597;20.00;56366.00
1724239866.498;597;20.00;56366.00
1724239866.548;595;20.00;56063.00
1724239866.598;600;20.00;56615.00
1724239866.649;600;20.00;56615.00
1724239866.699;600;20.00;56615.00
1724239866.749;600;20.00;56615.00
1724239866.800;588;20.00;55202.00
1724239878.617;100;28.00;6.00
1724239878.667;100;28.00;40072.00
1724239878.718;100;27.00;90069.00
1724239878.768;100;27.00;90069.00
1724239878.818;100;27.00;90069.00
1724239878.868;100;27.00;59271.00
1724239878.918;100;27.00;59271.00
1724239878.968;100;27.00;59271.00
1724239879.020;100;28.00;52881.00
1724239879.068;100;27.00;67443.00
1724239879.118;100;27.00;67443.00
1724239879.167;100;28.00;608.00
1724239879.217;100;28.00;6.00
1724239879.268;100;28.00;6.00
1724239879.319;100;28.00;6.00
1724239879.369;100;28.00;55405.00
1724239879.419;100;28.00;6.00
1724239879.469;100;28.00;6.00
1724239879.519;100;28.00;6.00
1724239879.569;100;28.00;54538.00
1724239879.619;100;28.00;54538.00
1724239879.669;100;28.00;54538.00
1724239879.718;100;28.00;6364.00
1724239879.769;100;28.00;6364.00
1724239879.820;100;28.00;6364.00
1724239879.870;100;28.00;14381.00
1724239879.920;100;28.00;15496.00
1724239879.970;100;28.00;15496.00
1724239880.020;100;28.00;15496.00
1724239880.070;100;27.00;74843.00
1724239880.119;100;27.00;74843.00
1724239880.169;100;27.00;74843.00
1724239880.220;100;28.00;6.00
1724239880.270;100;27.00;81502.00
1724239880.320;100;27.00;81502.00
1724239880.371;100;27.00;89759.00
1724239880.421;100;28.00;6.00
1724239880.471;100;28.00;6.00
1724239880.521;100;28.00;6.00
1724239880.571;100;27.00;94718.00
1724239880.620;100;28.00;12186.00
1724239880.670;100;28.00;12186.00
1724239880.720;100;28.00;12186.00
1724239880.771;100;28.00;6.00
1724239880.821;100;28.00;6.00
1724239880.871;100;28.00;6.00
1724239880.921;100;28.00;54927.00
1724239880.971;100;28.00;6.00
1724239881.021;100;28.00;6.00
1724239881.071;100;28.00;6.00
1724239881.120;100;28.00;7691.00
1724239881.170;100;28.00;7691.00
1724239881.220;100;28.00;7691.00
1724239881.270;100;28.00;6.00
1724239881.320;100;28.00;6.00
1724239881.371;100;28.00;6.00
1724239881.421;100;28.00;29314.00
1724239881.471;100;28.00;29314.00
1724239881.521;100;28.00;29314.00
1724239881.571;100;28.00;2184.00
1724239881.621;100;28.00;15555.00
1724239881.672;100;28.00;15555.00
1724239881.721;100;28.00;15555.00
1724239881.771;100;28.00;6.00
1724239881.821;100;28.00;6.00
1724239881.871;100;28.00;6.00
1724239881.921;100;28.00;6.00
1724239881.971;100;28.00;18623.00
1724239882.021;100;28.00;18623.00
1724239882.072;100;28.00;18623.00
1724239882.122;100;28.00;18623.00
1724239882.172;100;28.00;6.00
1724239882.222;100;28.00;6.00
1724239882.272;100;28.00;6.00
1724239882.323;100;28.00;51853.00
1724239882.373;100;28.00;51853.00
1724239882.422;100;28.00;51853.00
1724239882.472;100;27.00;76897.00
1724239882.522;100;27.00;76897.00
1724239882.572;100;27.00;76897.00
1724239882.623;100;27.00;90715.00
1724239882.673;100;28.00;6.00
1724239882.722;100;28.00;6.00
1724239882.772;100;28.00;6.00
1724239882.822;100;28.00;6.00
1724239882.872;100;28.00;6.00
1724239882.922;100;28.00;6.00
1724239882.973;100;28.00;28269.00
1724239883.023;100;28.00;6.00
1724239883.073;100;28.00;6.00
1724239883.123;100;28.00;6.00
1724239883.173;100;28.00;13765.00
1724239883.223;100;28.00;13765.00
1724239883.273;100;28.00;13765.00
1724239883.322;100;28.00;13765.00
1724239883.372;100;28.00;29214.00
1724239883.423;100;28.00;29214.00
1724239883.473;100;28.00;29214.00
1724239883.523;100;28.00;29214.00
1724239883.573;100;28.00;6.00
1724239883.623;100;28.00;6.00
1724239883.673;100;28.00;6.00
1724239883.723;100;28.00;6.00
1724239890.763;100;27.00;46381.00
1724239890.813;100;27.00;39962.00
1724239890.863;100;27.00;57193.00
1724239890.913;100;27.00;57193.00
1724239890.963;100;28.00;53259.00
1724239891.014;100;27.00;98724.00
1724239891.064;100;28.00;48606.00
1724239891.115;100;28.00;48606.00
1724239891.165;100;28.00;58091.00
1724239891.215;100;28.00;47163.00
1724239891.265;100;28.00;47163.00
1724239891.315;100;28.00;47163.00
1724239891.367;100;28.00;6.00
1724239891.417;100;28.00;6.00
1724239891.467;100;28.00;6.00
1724239891.517;100;28.00;6.00
1724239891.567;100;27.00;4904.00
1724239891.617;100;27.00;4904.00
1724239891.667;100;27.00;4904.00
1724239891.717;100;28.00;6.00
1724239891.767;100;28.00;51761.00
1724239891.818;100;28.00;51761.00
1724239891.868;100;28.00;6.00
1724239891.918;100;28.00;20282.00
1724239891.968;100;28.00;20282.00
1724239892.018;100;28.00;20282.00
1724239892.068;100;27.00;32418.00
1724239892.118;100;27.00;47916.00
1724239892.168;100;27.00;47916.00
1724239892.218;100;27.00;47916.00
1724239892.268;100;27.00;94021.00
1724239892.317;100;27.00;94021.00
1724239892.368;100;27.00;94021.00
1724239892.418;100;27.00;86417.00
1724239892.468;100;28.00;6.00
1724239892.520;100;28.00;6.00
1724239892.568;100;28.00;6.00
1724239892.618;100;28.00;7257.00
1724239892.668;100;28.00;7257.00
1724239892.718;100;28.00;7257.00
1724239892.768;100;28.00;6.00
1724239892.819;100;27.00;92362.00
1724239892.869;100;27.00;92362.00
1724239892.919;100;27.00;92362.00
1724239892.969;100;28.00;6.00
1724239893.020;100;28.00;6.00
1724239893.070;100;28.00;6.00
1724239893.120;100;27.00;74633.00
1724239893.170;100;28.00;6.00
1724239893.220;100;28.00;6.00
1724239893.271;100;28.00;16964.00
1724239893.321;100;28.00;26998.00
1724239893.371;100;28.00;26998.00
1724239893.421;100;28.00;26998.00
1724239893.471;100;27.00;61575.00
1724239893.521;100;28.00;6.00
1724239893.571;100;28.00;6.00
1724239893.621;100;28.00;6.00
1724239893.671;100;28.00;6.00
1724239893.721;100;27.00;21052.00
1724239893.771;100;27.00;21052.00
1724239893.821;100;27.00;21052.00
1724239893.871;100;28.00;6.00
1724239893.921;100;28.00;6.00
1724239893.971;100;28.00;6.00
1724239894.021;100;27.00;89801.00
1724239894.071;100;28.00;6.00
1724239894.122;100;28.00;6.00
1724239894.172;100;28.00;4374.00
1724239894.222;100;28.00;6.00
1724239894.272;100;28.00;6.00
1724239894.322;100;28.00;6.00
1724239894.372;100;28.00;6.00
1724239894.422;100;27.00;69168.00
1724239894.471;100;27.00;69168.00
1724239894.521;100;27.00;69168.00
1724239894.572;100;27.00;50841.00
1724239894.622;100;27.00;50841.00
1724239894.672;100;27.00;50841.00
1724239894.722;100;28.00;4462.00
1724239894.771;100;27.00;88724.00
1724239894.822;100;27.00;88724.00
1724239894.872;100;27.00;88724.00
1724239894.922;100;28.00;6.00
1724239894.972;100;28.00;19588.00
1724239895.022;100;28.00;19588.00
1724239895.072;100;28.00;47613.00
1724239895.121;100;28.00;22.00
1724239895.171;100;28.00;22.00
1724239895.221;100;28.00;22.00
1724239895.272;100;28.00;6.00
1724239895.322;100;28.00;6.00
1724239895.372;100;28.00;6.00
1724239895.422;100;28.00;6.00
1724239895.473;100;27.00;77032.00
1724239895.523;100;27.00;77032.00
1724239895.573;100;27.00;77032.00
1724239895.623;100;28.00;48146.00
1724239895.673;100;28.00;26946.00
1724239895.723;100;28.00;26946.00
1724239895.773;100;28.00;916.00
1724239895.822;100;28.00;6.00
1724239895.872;100;28.00;6.00
1724239895.922;100;28.00;6.00
1724239895.972;100;28.00;6.00
1724239903.148;100;28.00;6.00
1724239903.198;100;28.00;6.00
1724239903.248;100;28.00;6.00
1724239903.299;100;28.00;6.00
1724239903.349;100;28.00;41404.00
1724239903.398;100;28.00;5112.00
1724239903.448;100;28.00;5112.00
1724239903.498;100;28.00;5112.00
1724239903.548;100;27.00;60913.00
1724239903.598;100;27.00;60913.00
1724239903.648;100;27.00;60913.00
1724239903.698;100;28.00;6.00
1724239903.748;100;27.00;73672.00
1724239903.799;100;27.00;73672.00
1724239903.849;100;27.00;73672.00
1724239903.899;100;28.00;6.00
1724239903.949;100;28.00;6.00
1724239903.999;100;28.00;6.00
1724239904.049;100;28.00;54235.00
1724239904.099;100;28.00;6.00
1724239904.149;100;28.00;6.00
1724239904.199;100;28.00;6.00
1724239904.249;100;28.00;50534.00
1724239904.298;100;28.00;50534.00
1724239904.348;100;28.00;50534.00
1724239904.399;100;28.00;6.00
1724239904.449;100;28.00;6.00
1724239904.499;100;28.00;6.00
1724239904.549;100;28.00;30026.00
1724239904.599;100;27.00;87648.00
1724239904.649;100;27.00;87648.00
1724239904.699;100;27.00;87648.00
1724239904.749;100;27.00;82266.00
1724239904.798;100;27.00;82266.00
1724239904.848;100;27.00;82266.00
1724239904.898;100;27.00;93148.00
1724239904.948;100;27.00;93148.00
1724239904.998;100;27.00;93148.00
1724239905.048;100;27.00;93148.00
1724239905.099;100;28.00;53676.00
1724239905.149;100;28.00;53676.00
1724239905.199;100;28.00;53676.00
1724239905.250;100;28.00;6.00
1724239905.300;100;28.00;6315.00
1724239905.350;100;28.00;6315.00
1724239905.400;100;28.00;6315.00
1724239905.450;100;28.00;6.00
1724239905.500;100;27.00;68919.00
1724239905.550;100;27.00;68919.00
1724239905.600;100;28.00;30518.00
1724239905.650;100;27.00;91235.00
1724239905.700;100;27.00;91235.00
1724239905.750;100;27.00;91235.00
1724239905.800;100;27.00;99971.00
1724239905.850;100;28.00;56691.00
1724239905.900;100;28.00;56691.00
1724239905.950;100;28.00;56691.00
1724239906.001;100;27.00;93595.00
1724239906.051;100;27.00;93595.00
1724239906.101;100;27.00;93595.00
1724239906.151;100;28.00;30539.00
1724239906.201;100;28.00;30539.00
1724239906.251;100;28.00;30539.00
1724239906.300;100;28.00;12235.00
1724239906.351;100;28.00;6.00
1724239906.401;100;28.00;6.00
1724239906.451;100;28.00;6.00
1724239906.501;100;28.00;6.00
1724239906.552;100;28.00;6.00
1724239906.602;100;28.00;6.00
1724239906.651;100;28.00;6.00
1724239906.701;100;27.00;72733.00
1724239906.751;100;27.00;72733.00
1724239906.801;100;27.00;72733.00
1724239906.852;100;28.00;6.00
1724239906.902;100;28.00;6.00
1724239906.952;100;28.00;6.00
1724239907.002;100;28.00;6.00
1724239907.052;100;28.00;6.00
1724239907.102;100;28.00;6.00
1724239907.152;100;28.00;6.00
1724239907.201;100;28.00;56362.00
1724239907.251;100;28.00;56362.00
1724239907.301;100;28.00;56362.00
1724239907.351;100;27.00;37556.00
1724239907.401;100;27.00;87958.00
1724239907.451;100;27.00;87958.00
1724239907.501;100;27.00;87958.00
1724239907.551;100;28.00;31889.00
1724239907.601;100;28.00;31889.00
1724239907.651;100;28.00;31889.00
1724239907.701;100;28.00;24996.00
1724239907.751;100;28.00;365.00
1724239907.801;100;28.00;365.00
1724239907.851;100;28.00;365.00
1724239907.901;100;28.00;6.00
1724239907.952;100;28.00;6.00
1724239908.001;100;28.00;6.00
1724239908.051;100;28.00;23596.00
1724239908.101;100;28.00;12527.00
1724239908.151;100;28.00;12527.00
1724239908.201;100;28.00;12527.00
1724239918.294;200;26.00;6174.00
1724239918.344;200;28.00;3915.00
1724239918.394;200;28.00;42386.00
1724239918.444;200;28.00;42386.00
1724239918.495;200;27.00;13744.00
1724239918.545;200;28.00;6.00
1724239918.595;200;28.00;6.00
1724239918.645;200;28.00;6.00
1724239918.694;200;27.00;83493.00
1724239918.744;200;28.00;58259.00
1724239918.794;200;28.00;58259.00
1724239918.844;200;28.00;58259.00
1724239918.895;200;27.00;62727.00
1724239918.945;200;27.00;62727.00
1724239918.995;200;27.00;62727.00
1724239919.045;200;28.00;50237.00
1724239919.095;200;28.00;59217.00
1724239919.145;200;28.00;59217.00
1724239919.195;200;28.00;59217.00
1724239919.245;200;28.00;6.00
1724239919.295;200;28.00;6.00
1724239919.344;200;28.00;6.00
1724239919.395;200;28.00;20178.00
1724239919.445;200;28.00;6.00
1724239919.495;200;28.00;6.00
1724239919.545;200;28.00;6.00
1724239919.595;200;28.00;4695.00
1724239919.645;200;28.00;4695.00
1724239919.695;200;28.00;4695.00
1724239919.746;200;28.00;41098.00
1724239919.796;200;27.00;66981.00
1724239919.846;200;27.00;66981.00
1724239919.896;200;27.00;66981.00
1724239919.946;200;28.00;41365.00
1724239919.996;200;28.00;44926.00
1724239920.046;200;28.00;44926.00
1724239920.096;200;27.00;91493.00
1724239920.146;200;28.00;6.00
1724239920.196;200;28.00;6.00
1724239920.246;200;28.00;6.00
1724239920.296;200;28.00;6.00
1724239920.346;200;28.00;51371.00
1724239920.396;200;28.00;51371.00
1724239920.446;200;28.00;51371.00
1724239920.496;200;27.00;82838.00
1724239920.546;200;27.00;82838.00
1724239920.596;200;27.00;82838.00
1724239920.646;200;27.00;90929.00
1724239920.696;200;28.00;6.00
1724239920.746;200;28.00;6.00
1724239920.796;200;28.00;6.00
1724239920.846;200;27.00;67898.00
1724239920.896;200;27.00;67898.00
1724239920.947;200;27.00;67898.00
1724239920.997;200;27.00;90938.00
1724239921.047;200;27.00;86951.00
1724239921.097;200;27.00;86951.00
1724239921.146;200;27.00;86951.00
1724239921.196;200;28.00;20214.00
1724239921.246;200;27.00;86851.00
1724239921.296;200;27.00;86851.00
1724239921.346;200;27.00;86851.00
1724239921.396;200;28.00;6.00
1724239921.446;200;28.00;6.00
1724239921.496;200;28.00;6.00
1724239921.546;200;27.00;42698.00
1724239921.596;200;27.00;66443.00
1724239921.646;200;27.00;66443.00
1724239921.696;200;28.00;18974.00
1724239921.746;200;28.00;6.00
1724239921.797;200;28.00;6.00
1724239921.847;200;28.00;6.00
1724239921.896;200;27.00;93825.00
1724239921.946;200;28.00;58268.00
1724239921.996;200;28.00;368.00
1724239922.046;200;28.00;368.00
1724239922.096;200;28.00;3883.00
1724239922.149;200;28.00;45794.00
1724239922.196;200;28.00;6.00
1724239922.246;200;28.00;6.00
1724239922.298;200;28.00;31834.00
1724239922.348;200;28.00;44795.00
1724239922.398;200;28.00;44795.00
1724239922.448;200;28.00;44795.00
1724239922.498;200;28.00;6512.00
1724239922.548;200;28.00;37264.00
1724239922.598;200;28.00;37264.00
1724239922.647;200;28.00;37264.00
1724239922.698;200;28.00;23732.00
1724239922.748;200;28.00;23732.00
1724239922.798;200;28.00;23732.00
1724239922.847;200;28.00;6.00
1724239922.898;200;28.00;37092.00
1724239922.947;200;28.00;37092.00
1724239922.997;200;28.00;37092.00
1724239923.047;200;27.00;34466.00
1724239923.097;200;27.00;34466.00
1724239923.147;200;27.00;34466.00
1724239923.197;200;28.00;6.00
1724239923.248;200;27.00;72684.00
1724239923.298;200;27.00;72684.00
1724239923.348;200;27.00;72684.00
1724239923.398;200;28.00;16422.00
1724239923.448;200;28.00;48984.00
1724239923.498;200;28.00;48984.00
1724239923.548;200;28.00;48984.00
1724239923.597;200;28.00;12671.00
1724239923.647;200;28.00;30861.00
1724239930.842;200;25.00;45619.00
1724239930.892;200;28.00;37273.00
1724239930.942;200;28.00;57901.00
1724239930.992;200;28.00;57901.00
1724239931.042;200;28.00;42377.00
1724239931.092;200;27.00;75353.00
1724239931.142;200;27.00;75353.00
1724239931.192;200;27.00;75353.00
1724239931.242;200;28.00;6.00
1724239931.292;200;28.00;6.00
1724239931.342;200;28.00;6.00
1724239931.392;200;28.00;24996.00
1724239931.442;200;28.00;52013.00
1724239931.492;200;28.00;52013.00
1724239931.542;200;28.00;52013.00
1724239931.592;200;27.00;87292.00
1724239931.642;200;28.00;6758.00
1724239931.692;200;28.00;6758.00
1724239931.742;200;28.00;6.00
1724239931.792;200;28.00;6.00
1724239931.865;200;28.00;6.00
1724239931.892;200;28.00;6.00
1724239931.942;200;28.00;6.00
1724239931.992;200;28.00;6.00
1724239932.043;200;28.00;2519.00
1724239932.093;200;27.00;64981.00
1724239932.143;200;27.00;64981.00
1724239932.194;200;27.00;64981.00
1724239932.244;200;27.00;81772.00
1724239932.294;200;27.00;14288.00
1724239932.344;200;27.00;14288.00
1724239932.394;200;27.00;14288.00
1724239932.446;200;25.00;83498.00
1724239932.496;200;28.00;16621.00
1724239932.546;200;28.00;16621.00
1724239932.597;200;28.00;16621.00
1724239932.647;200;27.00;48892.00
1724239932.697;200;27.00;15168.00
1724239932.747;200;27.00;15168.00
1724239932.797;200;27.00;15168.00
1724239932.847;200;27.00;96792.00
1724239932.897;200;28.00;6.00
1724239932.946;200;28.00;6.00
1724239932.997;200;28.00;6.00
1724239933.047;200;28.00;32026.00
1724239933.097;200;28.00;32026.00
1724239933.147;200;28.00;32026.00
1724239933.197;200;27.00;88178.00
1724239933.247;200;27.00;88178.00
1724239933.297;200;27.00;88178.00
1724239933.347;200;28.00;30675.00
1724239933.397;200;28.00;6.00
1724239933.447;200;28.00;6.00
1724239933.497;200;28.00;6.00
1724239933.547;200;28.00;14064.00
1724239933.596;200;28.00;46574.00
1724239933.646;200;28.00;46574.00
1724239933.696;200;28.00;41413.00
1724239933.746;200;27.00;90462.00
1724239933.796;200;27.00;90462.00
1724239933.846;200;27.00;90462.00
1724239933.903;200;27.00;97859.00
1724239933.950;200;28.00;55914.00
1724239934.000;200;28.00;55914.00
1724239934.050;200;28.00;55914.00
1724239934.101;200;28.00;29522.00
1724239934.151;200;28.00;6.00
1724239934.201;200;28.00;6.00
1724239934.251;200;28.00;6.00
1724239934.301;200;28.00;6.00
1724239934.351;200;27.00;71784.00
1724239934.401;200;27.00;71784.00
1724239934.451;200;27.00;71784.00
1724239934.501;200;27.00;71784.00
1724239934.782;200;27.00;71784.00
1724239934.783;200;27.00;71784.00
1724239934.784;200;27.00;71784.00
1724239934.784;200;27.00;71784.00
1724239934.785;200;27.00;71784.00
1724239934.801;200;27.00;71784.00
1724239934.851;200;28.00;6.00
1724239934.901;200;28.00;6.00
1724239934.952;200;28.00;6.00
1724239935.002;200;28.00;6.00
1724239935.051;200;28.00;2914.00
1724239935.102;200;27.00;63053.00
1724239935.152;200;28.00;15204.00
1724239935.202;200;28.00;10754.00
1724239935.252;200;28.00;10754.00
1724239935.303;200;28.00;10754.00
1724239935.353;200;28.00;59582.00
1724239935.402;200;28.00;43594.00
1724239935.452;200;28.00;43594.00
1724239935.502;200;28.00;43594.00
1724239935.552;200;28.00;6.00
1724239935.602;200;28.00;6.00
1724239935.652;200;28.00;6.00
1724239935.703;200;28.00;6.00
1724239935.754;200;28.00;45059.00
1724239935.803;200;27.00;6929.00
1724239935.853;200;27.00;6929.00
1724239935.903;200;28.00;30063.00
1724239935.953;200;28.00;6.00
1724239936.004;200;28.00;6.00
1724239936.054;200;28.00;6.00
1724239936.104;200;28.00;6.00
1724239936.154;200;28.00;6.00
1724239936.204;200;28.00;6.00
1724239936.254;200;28.00;6.00
1724239936.303;200;28.00;6.00
1724239936.353;200;28.00;516.00
1724239936.403;200;28.00;516.00
1724239936.454;200;28.00;10769.00
1724239936.504;200;28.00;6.00
1724239936.554;200;28.00;6.00
1724239936.604;200;28.00;6.00
1724239936.654;200;28.00;6.00
1724239936.704;200;28.00;6.00
1724239936.753;200;28.00;6.00
1724239936.804;200;28.00;50941.00
1724239936.854;200;28.00;28417.00
1724239943.880;200;26.00;28204.00
1724239943.931;200;28.00;6.00
1724239943.981;200;28.00;13057.00
1724239944.031;200;28.00;13057.00
1724239944.081;200;28.00;13057.00
1724239944.131;200;28.00;6.00
1724239944.181;200;28.00;6.00
1724239944.231;200;28.00;6.00
1724239944.281;200;28.00;6.00
1724239944.331;200;28.00;6.00
1724239944.381;200;28.00;6.00
1724239944.430;200;28.00;6.00
1724239944.480;200;28.00;6.00
1724239944.530;200;28.00;6.00
1724239944.580;200;28.00;6.00
1724239944.630;200;28.00;19.00
1724239944.680;200;28.00;19.00
1724239944.730;200;28.00;19.00
1724239944.781;200;28.00;6.00
1724239944.831;200;28.00;39783.00
1724239944.881;200;28.00;39783.00
1724239944.931;200;28.00;39783.00
1724239944.981;200;28.00;25979.00
1724239945.031;200;28.00;54251.00
1724239945.081;200;28.00;54251.00
1724239945.130;200;28.00;1178.00
1724239945.180;200;27.00;61926.00
1724239945.230;200;27.00;61926.00
1724239945.280;200;27.00;61926.00
1724239945.330;200;28.00;54877.00
1724239945.381;200;28.00;21217.00
1724239945.431;200;28.00;21217.00
1724239945.481;200;27.00;85083.00
1724239945.532;200;28.00;6.00
1724239945.582;200;28.00;6.00
1724239945.632;200;28.00;6.00
1724239945.682;200;25.00;98001.00
1724239945.732;200;25.00;98001.00
1724239945.782;200;25.00;98001.00
1724239945.832;200;28.00;7071.00
1724239945.882;200;27.00;82677.00
1724239945.931;200;27.00;82677.00
1724239945.981;200;27.00;82677.00
1724239946.032;200;27.00;65472.00
1724239946.082;200;28.00;411.00
1724239946.132;200;28.00;411.00
1724239946.183;200;27.00;90126.00
1724239946.233;200;27.00;93541.00
1724239946.283;200;27.00;93541.00
1724239946.333;200;27.00;93541.00
1724239946.383;200;28.00;6.00
1724239946.433;200;28.00;6.00
1724239946.483;200;28.00;6.00
1724239946.533;200;28.00;6.00
1724239946.583;200;28.00;37799.00
1724239946.633;200;28.00;37799.00
1724239946.683;200;28.00;37799.00
1724239946.733;200;27.00;56322.00
1724239946.783;200;27.00;56322.00
1724239946.833;200;27.00;56322.00
1724239946.883;200;27.00;56322.00
1724239946.933;200;26.00;41308.00
1724239946.983;200;28.00;481.00
1724239947.033;200;28.00;481.00
1724239947.083;200;28.00;481.00
1724239947.133;200;26.00;85459.00
1724239947.183;200;28.00;27518.00
1724239947.233;200;28.00;27518.00
1724239947.283;200;28.00;27518.00
1724239947.333;200;28.00;6.00
1724239947.383;200;28.00;6.00
1724239947.433;200;28.00;6.00
1724239947.483;200;27.00;63105.00
1724239947.532;200;27.00;63105.00
1724239947.582;200;27.00;63105.00
1724239947.633;200;28.00;1052.00
1724239947.683;200;27.00;89163.00
1724239947.733;200;27.00;89163.00
1724239947.783;200;28.00;6.00
1724239947.833;200;28.00;33424.00
1724239947.883;200;28.00;33424.00
1724239947.933;200;28.00;33424.00
1724239947.983;200;28.00;58174.00
1724239948.033;200;28.00;58174.00
1724239948.083;200;28.00;58174.00
1724239948.133;200;28.00;27542.00
1724239948.183;200;28.00;30052.00
1724239948.233;200;28.00;30052.00
1724239948.283;200;28.00;30052.00
1724239948.333;200;26.00;92822.00
1724239948.383;200;28.00;6.00
1724239948.433;200;28.00;6.00
1724239948.483;200;28.00;92.00
1724239948.533;200;28.00;25559.00
1724239948.583;200;28.00;25559.00
1724239948.633;200;28.00;25559.00
1724239948.683;200;28.00;11219.00
1724239948.733;200;28.00;11219.00
1724239948.783;200;28.00;11219.00
1724239948.833;200;28.00;3412.00
1724239948.883;200;28.00;32943.00
1724239948.933;200;28.00;32943.00
1724239948.983;200;26.00;85964.00
1724239966.560;536;25.00;49044.00
1724239966.610;599;25.00;56592.00
1724239966.660;591;25.00;55588.00
1724239966.710;591;25.00;55588.00
1724239966.760;591;25.00;55588.00
1724239966.811;596;25.00;56177.00
1724239966.861;596;25.00;56177.00
1724239966.911;596;25.00;56177.00
1724239966.961;589;25.00;55411.00
1724239967.011;574;25.00;53518.00
1724239967.061;574;25.00;53518.00
1724239967.111;576;25.00;53856.00
1724239967.161;575;25.00;53650.00
1724239967.211;575;25.00;53650.00
1724239967.261;575;25.00;53650.00
1724239967.311;581;25.00;54366.00
1724239967.361;589;25.00;55307.00
1724239967.412;589;25.00;55307.00
1724239967.462;577;25.00;53938.00
1724239967.512;571;25.00;53234.00
1724239967.562;571;25.00;53234.00
1724239967.612;571;25.00;53234.00
1724239967.662;600;25.00;56615.00
1724239967.712;600;25.00;56615.00
1724239967.762;600;25.00;56615.00
1724239967.812;600;25.00;56615.00
1724239967.862;600;25.00;56615.00
1724239967.912;574;25.00;53560.00
1724239967.962;574;25.00;53560.00
1724239968.013;574;25.00;53560.00
1724239968.063;577;25.00;53959.00
1724239968.113;600;25.00;56615.00
1724239968.163;600;25.00;56615.00
1724239968.212;578;25.00;54075.00
1724239968.262;569;25.00;53023.00
1724239968.313;599;25.00;56572.00
1724239968.363;599;25.00;56572.00
1724239968.413;597;25.00;56362.00
1724239968.463;600;25.00;56615.00
1724239968.513;600;25.00;56615.00
1724239968.563;600;25.00;56615.00
1724239968.613;580;25.00;54265.00
1724239968.666;592;25.00;55674.00
1724239968.713;600;25.00;56615.00
1724239968.763;600;25.00;56615.00
1724239968.813;580;25.00;54316.00
1724239968.863;597;25.00;56325.00
1724239968.913;594;25.00;55937.00
1724239968.963;594;25.00;55937.00
1724239969.013;598;25.00;56494.00
1724239969.063;592;25.00;55666.00
1724239969.113;600;25.00;56615.00
1724239969.163;600;25.00;56615.00
1724239969.214;578;25.00;54012.00
1724239969.264;587;25.00;55131.00
1724239969.314;587;25.00;55131.00
1724239969.364;587;25.00;55131.00
1724239969.414;595;25.00;56111.00
1724239969.464;595;25.00;56111.00
1724239969.514;595;25.00;56111.00
1724239969.564;600;25.00;56615.00
1724239969.614;586;25.00;55022.00
1724239969.664;586;25.00;55022.00
1724239969.714;586;25.00;55022.00
1724239969.764;600;25.00;56615.00
1724239969.814;579;25.00;54112.00
1724239969.864;579;25.00;54112.00
1724239969.914;579;25.00;54112.00
1724239969.964;581;25.00;54381.00
1724239970.014;590;25.00;55527.00
1724239970.064;590;25.00;55527.00
1724239970.114;590;25.00;55527.00
1724239970.164;600;25.00;56615.00
1724239970.214;579;25.00;54215.00
1724239970.264;579;25.00;54215.00
1724239970.314;579;25.00;54215.00
1724239970.364;600;25.00;56615.00
1724239970.415;600;25.00;56615.00
1724239970.465;600;25.00;56615.00
1724239970.515;600;25.00;56615.00
1724239970.565;583;25.00;54692.00
1724239970.615;567;25.00;52709.00
1724239970.664;567;25.00;52709.00
1724239970.715;593;25.00;55885.00
1724239970.764;591;25.00;55612.00
1724239970.815;591;25.00;55612.00
1724239970.865;591;25.00;55612.00
1724239970.915;584;25.00;54731.00
1724239970.965;580;25.00;54240.00
1724239971.015;580;25.00;54240.00
1724239971.065;580;25.00;54240.00
1724239971.115;566;25.00;52610.00
1724239971.165;581;25.00;54398.00
1724239971.215;581;25.00;54398.00
1724239971.265;584;25.00;54793.00
1724239971.315;583;25.00;54652.00
1724239971.365;583;25.00;54652.00
1724239971.415;583;25.00;54652.00
1724239971.465;588;25.00;55279.00
1724239971.515;600;25.00;56615.00
1724239971.565;600;25.00;56615.00
1724239971.614;600;25.00;56615.00
1724239971.664;594;25.00;55965.00
1724239971.714;583;25.00;54605.00
1724239971.764;583;25.00;54605.00
1724239971.814;600;25.00;56615.00
1724239971.864;588;25.00;55297.00
1724239971.914;599;25.00;56613.00
1724239971.971;599;25.00;56613.00
1724239972.018;592;25.00;55742.00
1724239972.069;591;25.00;55584.00
1724239979.069;600;25.00;56615.00
1724239979.119;579;25.00;54182.00
1724239979.169;589;25.00;55401.00
1724239979.219;589;25.00;55401.00
1724239979.269;598;25.00;56402.00
1724239979.319;600;25.00;56615.00
1724239979.369;600;25.00;56615.00
1724239979.420;600;25.00;56615.00
1724239979.470;600;25.00;56615.00
1724239979.519;600;25.00;56615.00
1724239979.569;600;25.00;56615.00
1724239979.619;600;25.00;56615.00
1724239979.670;600;25.00;56615.00
1724239979.720;600;25.00;56615.00
1724239979.770;600;25.00;56615.00
1724239979.820;600;25.00;56615.00
1724239979.870;578;25.00;54055.00
1724239979.920;578;25.00;54055.00
1724239979.970;572;25.00;53355.00
1724239980.020;600;25.00;56615.00
1724239980.070;600;25.00;56615.00
1724239980.121;600;25.00;56615.00
1724239980.171;590;25.00;55466.00
1724239980.221;600;25.00;56615.00
1724239980.271;600;25.00;56615.00
1724239980.320;600;25.00;56615.00
1724239980.371;594;25.00;55916.00
1724239980.421;594;25.00;55916.00
1724239980.471;594;25.00;55916.00
1724239980.521;593;25.00;55800.00
1724239980.571;563;25.00;52267.00
1724239980.624;563;25.00;52267.00
1724239980.675;576;25.00;53769.00
1724239980.725;600;25.00;56615.00
1724239980.775;600;25.00;56615.00
1724239980.825;600;25.00;56615.00
1724239980.875;600;25.00;56615.00
1724239980.925;568;25.00;52917.00
1724239980.975;568;25.00;52917.00
1724239981.025;584;25.00;54715.00
1724239981.075;600;25.00;56615.00
1724239981.125;600;25.00;56615.00
1724239981.175;600;25.00;56615.00
1724239981.224;600;25.00;56615.00
1724239981.275;600;25.00;56615.00
1724239981.326;600;25.00;56615.00
1724239981.377;585;25.00;54890.00
1724239981.427;592;25.00;55731.00
1724239981.477;592;25.00;55731.00
1724239981.527;592;25.00;55731.00
1724239981.577;600;25.00;56615.00
1724239981.627;600;25.00;56615.00
1724239981.677;600;25.00;56615.00
1724239981.727;600;25.00;56615.00
1724239981.777;571;25.00;53207.00
1724239981.827;571;25.00;53207.00
1724239981.877;571;25.00;53207.00
1724239981.927;576;25.00;53850.00
1724239981.977;571;25.00;53261.00
1724239982.028;571;25.00;53261.00
1724239982.078;571;25.00;53261.00
1724239982.128;600;25.00;56615.00
1724239982.178;573;25.00;53455.00
1724239982.228;573;25.00;53455.00
1724239982.278;573;25.00;53455.00
1724239982.328;598;25.00;56395.00
1724239982.378;598;25.00;56395.00
1724239982.428;598;25.00;56395.00
1724239982.478;600;25.00;56615.00
1724239982.527;586;25.00;54996.00
1724239982.577;586;25.00;54996.00
1724239982.627;600;25.00;56615.00
1724239982.677;585;25.00;54899.00
1724239982.727;585;25.00;54899.00
1724239982.777;585;25.00;54931.00
1724239982.827;591;25.00;55642.00
1724239982.877;591;25.00;55642.00
1724239982.927;591;25.00;55642.00
1724239982.977;580;25.00;54267.00
1724239983.028;579;25.00;54138.00
1724239983.078;579;25.00;54138.00
1724239983.128;600;25.00;56615.00
1724239983.178;578;25.00;54059.00
1724239983.228;578;25.00;54059.00
1724239983.279;578;25.00;54059.00
1724239983.328;574;25.00;53601.00
1724239983.378;567;25.00;52684.00
1724239983.428;567;25.00;52684.00
1724239983.478;567;25.00;52684.00
1724239983.529;595;25.00;56096.00
1724239983.579;585;25.00;54832.00
1724239983.629;585;25.00;54832.00
1724239983.679;563;25.00;52223.00
1724239983.729;590;25.00;55491.00
1724239983.779;590;25.00;55491.00
1724239983.829;590;25.00;55491.00
1724239983.879;598;25.00;56463.00
1724239983.929;600;25.00;56615.00
1724239983.979;600;25.00;56615.00
1724239984.029;575;25.00;53685.00
1724239984.079;582;25.00;54524.00
1724239984.129;582;25.00;54524.00
1724239984.179;582;25.00;54524.00
1724239984.229;574;25.00;53554.00
1724239991.537;540;25.00;49518.00
1724239991.587;579;25.00;54164.00
1724239991.637;579;25.00;54164.00
1724239991.687;579;25.00;54164.00
1724239991.738;582;25.00;54474.00
1724239991.788;594;25.00;55995.00
1724239991.838;594;25.00;55995.00
1724239991.888;594;25.00;55995.00
1724239991.938;577;25.00;53985.00
1724239991.988;590;25.00;55514.00
1724239992.039;590;25.00;55514.00
1724239992.089;590;25.00;55514.00
1724239992.139;600;25.00;56615.00
1724239992.189;579;25.00;54206.00
1724239992.239;579;25.00;54206.00
1724239992.289;579;25.00;54206.00
1724239992.339;594;25.00;56005.00
1724239992.388;566;25.00;52677.00
1724239992.439;566;25.00;52677.00
1724239992.489;566;25.00;52677.00
1724239992.539;600;25.00;56615.00
1724239992.589;600;25.00;56615.00
1724239992.639;600;25.00;56615.00
1724239992.689;581;25.00;54441.00
1724239992.739;599;25.00;56508.00
1724239992.789;599;25.00;56508.00
1724239992.838;600;25.00;56615.00
1724239992.888;593;25.00;55839.00
1724239992.938;593;25.00;55839.00
1724239992.988;593;25.00;55839.00
1724239993.038;566;25.00;52648.00
1724239993.088;600;25.00;56615.00
1724239993.138;600;25.00;56615.00
1724239993.188;600;25.00;56615.00
1724239993.238;592;25.00;55709.00
1724239993.288;592;25.00;55709.00
1724239993.339;592;25.00;55709.00
1724239993.389;562;25.00;52198.00
1724239993.439;589;25.00;55408.00
1724239993.490;589;25.00;55408.00
1724239993.540;598;25.00;56427.00
1724239993.590;586;25.00;55058.00
1724239993.640;586;25.00;55058.00
1724239993.690;586;25.00;55058.00
1724239993.740;580;25.00;54237.00
1724239993.791;596;25.00;56249.00
1724239993.841;596;25.00;56249.00
1724239993.891;596;25.00;56249.00
1724239993.941;600;25.00;56615.00
1724239993.991;599;25.00;56545.00
1724239994.041;600;25.00;56615.00
1724239994.091;600;25.00;56615.00
1724239994.141;571;25.00;53172.00
1724239994.191;600;25.00;56615.00
1724239994.241;600;25.00;56615.00
1724239994.291;600;25.00;56615.00
1724239994.341;600;25.00;56615.00
1724239994.391;573;25.00;53417.00
1724239994.441;573;25.00;53417.00
1724239994.491;573;25.00;53417.00
1724239994.541;600;25.00;56615.00
1724239994.591;575;25.00;53731.00
1724239994.641;575;25.00;53731.00
1724239994.691;600;25.00;56615.00
1724239994.741;588;25.00;55198.00
1724239994.791;588;25.00;55198.00
1724239994.841;588;25.00;55198.00
1724239994.891;599;25.00;56545.00
1724239994.941;575;25.00;53675.00
1724239994.991;575;25.00;53675.00
1724239995.041;597;25.00;56342.00
1724239995.091;591;25.00;55639.00
1724239995.141;591;25.00;55639.00
1724239995.191;591;25.00;55639.00
1724239995.240;598;25.00;56451.00
1724239995.290;598;25.00;56456.00
1724239995.340;598;25.00;56456.00
1724239995.390;598;25.00;56456.00
1724239995.440;589;25.00;55382.00
1724239995.490;589;25.00;55382.00
1724239995.540;589;25.00;55382.00
1724239995.590;581;25.00;54410.00
1724239995.640;600;25.00;56615.00
1724239995.690;600;25.00;56615.00
1724239995.741;588;25.00;55186.00
1724239995.791;600;25.00;56615.00
1724239995.841;600;25.00;56615.00
1724239995.891;600;25.00;56615.00
1724239995.941;586;25.00;55001.00
1724239995.991;580;25.00;54281.00
1724239996.041;580;25.00;54281.00
1724239996.090;580;25.00;54281.00
1724239996.141;600;25.00;56615.00
1724239996.191;600;25.00;56615.00
1724239996.241;600;25.00;56615.00
1724239996.291;600;25.00;56615.00
1724239996.341;600;25.00;56615.00
1724239996.391;600;25.00;56615.00
1724239996.441;600;25.00;56615.00
1724239996.491;571;25.00;53175.00
1724239996.541;600;25.00;56615.00
1724239996.591;600;25.00;56615.00
1724239996.640;600;25.00;56615.00
1724239996.691;596;25.00;56182.00
1724239996.740;596;25.00;56182.00
1724239996.790;596;25.00;56182.00
1724239996.841;579;25.00;54133.00
1724240022.034;300;28.00;6.00
1724240022.084;300;28.00;36077.00
1724240022.133;300;27.00;66168.00
1724240022.183;300;27.00;66168.00
1724240022.233;300;27.00;66168.00
1724240022.283;300;28.00;6.00
1724240022.334;300;27.00;80063.00
1724240022.385;300;27.00;80063.00
1724240022.434;300;27.00;80063.00
1724240022.484;300;27.00;37298.00
1724240022.535;300;27.00;49966.00
1724240022.585;300;27.00;49966.00
1724240022.635;300;28.00;6.00
1724240022.684;300;27.00;87201.00
1724240022.734;300;27.00;87201.00
1724240022.784;300;27.00;87201.00
1724240022.834;300;28.00;13236.00
1724240022.885;300;28.00;13236.00
1724240022.935;300;28.00;13236.00
1724240022.985;300;28.00;6.00
1724240023.035;300;27.00;36287.00
1724240023.085;300;27.00;36287.00
1724240023.135;300;27.00;36287.00
1724240023.185;300;28.00;53325.00
1724240023.235;300;28.00;6.00
1724240023.285;300;28.00;6.00
1724240023.335;300;28.00;6.00
1724240023.385;300;28.00;486.00
1724240023.434;300;28.00;6.00
1724240023.484;300;28.00;6.00
1724240023.536;300;28.00;6.00
1724240023.586;300;28.00;31251.00
1724240023.636;300;28.00;44838.00
1724240023.686;300;28.00;44838.00
1724240023.736;300;28.00;56914.00
1724240023.786;300;28.00;2871.00
1724240023.836;300;28.00;2871.00
1724240023.886;300;28.00;23195.00
1724240023.936;300;27.00;66734.00
1724240023.986;300;27.00;66734.00
1724240024.036;300;27.00;66734.00
1724240024.085;300;28.00;6.00
1724240024.136;300;28.00;6.00
1724240024.185;300;28.00;6.00
1724240024.236;300;27.00;48457.00
1724240024.286;300;28.00;6.00
1724240024.335;300;27.00;7776.00
1724240024.392;300;27.00;7776.00
1724240024.440;300;28.00;6.00
1724240024.490;300;28.00;14014.00
1724240024.540;300;28.00;6.00
1724240024.590;300;28.00;6.00
1724240024.640;300;28.00;6.00
1724240024.690;300;27.00;4954.00
1724240024.741;300;27.00;91694.00
1724240024.791;300;27.00;91694.00
1724240024.841;300;28.00;22051.00
1724240024.891;300;28.00;6.00
1724240024.941;300;28.00;6.00
1724240024.991;300;28.00;6.00
1724240025.041;300;28.00;32472.00
1724240025.091;300;28.00;6.00
1724240025.140;300;28.00;6.00
1724240025.191;300;28.00;6.00
1724240025.241;300;28.00;6.00
1724240025.291;300;28.00;6.00
1724240025.341;300;28.00;6.00
1724240025.391;300;27.00;94949.00
1724240025.441;300;28.00;21354.00
1724240025.491;300;28.00;21354.00
1724240025.541;300;28.00;47041.00
1724240025.591;300;28.00;58405.00
1724240025.641;300;28.00;33607.00
1724240025.691;300;28.00;33607.00
1724240025.741;300;28.00;6.00
1724240025.791;300;28.00;6.00
1724240025.841;300;28.00;6.00
1724240025.890;300;28.00;6.00
1724240025.940;300;28.00;6.00
1724240025.990;300;28.00;6.00
1724240026.040;300;28.00;6.00
1724240026.091;300;28.00;6.00
1724240026.141;300;27.00;90772.00
1724240026.190;300;27.00;90772.00
1724240026.241;300;27.00;90772.00
1724240026.292;300;27.00;79904.00
1724240026.342;300;25.00;65751.00
1724240026.392;300;25.00;65751.00
1724240026.442;300;28.00;153.00
1724240026.492;300;28.00;6.00
1724240026.542;300;28.00;6.00
1724240026.592;300;28.00;6.00
1724240026.642;300;28.00;6.00
1724240026.691;300;27.00;99438.00
1724240026.741;300;27.00;99438.00
1724240026.792;300;27.00;99438.00
1724240026.842;300;28.00;35851.00
1724240026.892;300;28.00;35851.00
1724240026.942;300;28.00;35851.00
1724240026.992;300;28.00;6.00
1724240027.041;300;28.00;6.00
1724240027.091;300;28.00;6.00
1724240027.142;300;28.00;6.00
1724240027.192;300;28.00;6.00
1724240027.242;300;27.00;59273.00
1724240027.293;300;27.00;59273.00
1724240027.343;300;28.00;46838.00
1724240027.393;300;28.00;38044.00
1724240034.414;300;26.00;38998.00
1724240034.464;300;28.00;6.00
1724240034.514;300;28.00;56973.00
1724240034.564;300;28.00;56973.00
1724240034.614;300;28.00;56973.00
1724240034.665;300;27.00;56352.00
1724240034.715;300;27.00;56352.00
1724240034.765;300;27.00;56352.00
1724240034.815;300;28.00;6.00
1724240034.865;300;28.00;6.00
1724240034.915;300;28.00;6.00
1724240034.966;300;28.00;6.00
1724240035.016;300;27.00;94901.00
1724240035.066;300;27.00;51891.00
1724240035.116;300;27.00;51891.00
1724240035.166;300;28.00;6.00
1724240035.215;300;28.00;3012.00
1724240035.265;300;28.00;3012.00
1724240035.316;300;28.00;3012.00
1724240035.366;300;27.00;98971.00
1724240035.416;300;24.00;40046.00
1724240035.466;300;24.00;40046.00
1724240035.516;300;24.00;40046.00
1724240035.566;300;28.00;906.00
1724240035.616;300;28.00;58881.00
1724240035.665;300;28.00;58881.00
1724240035.715;300;28.00;58881.00
1724240035.766;300;25.00;32602.00
1724240035.816;300;28.00;6.00
1724240035.866;300;28.00;6.00
1724240035.916;300;28.00;6.00
1724240035.967;300;27.00;87956.00
1724240036.017;300;27.00;93645.00
1724240036.067;300;27.00;93645.00
1724240036.116;300;27.00;93645.00
1724240036.166;300;27.00;33962.00
1724240036.216;300;28.00;6.00
1724240036.266;300;28.00;6.00
1724240036.317;300;28.00;6.00
1724240036.368;300;28.00;30035.00
1724240036.419;300;28.00;30035.00
1724240036.469;300;28.00;30035.00
1724240036.519;300;28.00;6.00
1724240036.569;300;28.00;38235.00
1724240036.619;300;28.00;38235.00
1724240036.669;300;28.00;35103.00
1724240036.719;300;28.00;6.00
1724240036.769;300;28.00;6.00
1724240036.819;300;28.00;6.00
1724240036.868;300;28.00;15496.00
1724240036.918;300;28.00;6.00
1724240036.968;300;28.00;6.00
1724240037.018;300;28.00;6.00
1724240037.069;300;28.00;6.00
1724240037.119;300;28.00;26688.00
1724240037.169;300;28.00;26688.00
1724240037.219;300;28.00;26688.00
1724240037.269;300;27.00;95857.00
1724240037.319;300;27.00;95857.00
1724240037.369;300;27.00;95857.00
1724240037.419;300;28.00;32705.00
1724240037.469;300;27.00;33903.00
1724240037.519;300;27.00;33903.00
1724240037.569;300;27.00;52173.00
1724240037.618;300;28.00;6.00
1724240037.668;300;28.00;6.00
1724240037.718;300;28.00;6.00
1724240037.768;300;27.00;3949.00
1724240037.818;300;28.00;21961.00
1724240037.868;300;28.00;21961.00
1724240037.918;300;28.00;21961.00
1724240037.968;300;28.00;25904.00
1724240038.018;300;28.00;25904.00
1724240038.068;300;28.00;25904.00
1724240038.118;300;28.00;6.00
1724240038.168;300;27.00;70616.00
1724240038.218;300;27.00;70616.00
1724240038.268;300;27.00;70616.00
1724240038.318;300;28.00;11197.00
1724240038.368;300;28.00;6.00
1724240038.418;300;28.00;6.00
1724240038.468;300;28.00;6.00
1724240038.518;300;28.00;16654.00
1724240038.568;300;28.00;6.00
1724240038.618;300;28.00;6.00
1724240038.669;300;26.00;97782.00
1724240038.719;300;28.00;26159.00
1724240038.769;300;28.00;26159.00
1724240038.819;300;28.00;26159.00
1724240038.869;300;28.00;6.00
1724240038.919;300;28.00;31699.00
1724240038.969;300;28.00;31699.00
1724240039.019;300;28.00;31699.00
1724240039.069;300;27.00;58424.00
1724240039.119;300;28.00;6.00
1724240039.169;300;28.00;6.00
1724240039.219;300;28.00;6.00
1724240039.269;300;28.00;8741.00
1724240039.319;300;27.00;16927.00
1724240039.369;300;27.00;16927.00
1724240039.419;300;27.00;16927.00
1724240039.469;300;27.00;89384.00
1724240039.519;300;28.00;53707.00
1724240039.569;300;28.00;53707.00
1724240039.618;300;28.00;53707.00
1724240039.668;300;28.00;6.00
1724240039.719;300;28.00;6.00
1724240039.769;300;28.00;6.00
1724240039.820;300;28.00;6494.00
1724240047.026;300;26.00;44035.00
1724240047.076;300;28.00;6.00
1724240047.126;300;27.00;82035.00
1724240047.176;300;27.00;82035.00
1724240047.226;300;27.00;82035.00
1724240047.276;300;28.00;42568.00
1724240047.327;300;28.00;42568.00
1724240047.377;300;28.00;42568.00
1724240047.426;300;28.00;42568.00
1724240047.476;300;28.00;6.00
1724240047.526;300;28.00;6.00
1724240047.576;300;28.00;6.00
1724240047.626;300;28.00;6.00
1724240047.677;300;28.00;6.00
1724240047.727;300;28.00;6.00
1724240047.777;300;28.00;6.00
1724240047.827;300;28.00;5527.00
1724240047.877;300;28.00;56766.00
1724240047.927;300;28.00;56766.00
1724240047.977;300;28.00;6.00
1724240048.031;300;28.00;16988.00
1724240048.078;300;28.00;16988.00
1724240048.128;300;28.00;16988.00
1724240048.179;300;27.00;7974.00
1724240048.229;300;28.00;5604.00
1724240048.279;300;28.00;5604.00
1724240048.329;300;28.00;5604.00
1724240048.379;300;28.00;38225.00
1724240048.429;300;28.00;597.00
1724240048.479;300;28.00;597.00
1724240048.529;300;28.00;597.00
1724240048.579;300;27.00;8688.00
1724240048.629;300;27.00;8688.00
1724240048.679;300;27.00;8688.00
1724240048.729;300;28.00;6.00
1724240048.778;300;27.00;84054.00
1724240048.829;300;27.00;84054.00
1724240048.878;300;27.00;80666.00
1724240048.928;300;27.00;66265.00
1724240048.978;300;27.00;66265.00
1724240049.028;300;27.00;66265.00
1724240049.079;300;28.00;6.00
1724240049.129;300;27.00;95848.00
1724240049.179;300;27.00;95848.00
1724240049.229;300;27.00;95848.00
1724240049.279;300;28.00;6.00
1724240049.329;300;27.00;90052.00
1724240049.379;300;27.00;90052.00
1724240049.428;300;27.00;90052.00
1724240049.478;300;28.00;14226.00
1724240049.528;300;28.00;14226.00
1724240049.578;300;28.00;14226.00
1724240049.628;300;27.00;32914.00
1724240049.678;300;27.00;32914.00
1724240049.728;300;27.00;32914.00
1724240049.778;300;28.00;45829.00
1724240049.828;300;27.00;67282.00
1724240049.878;300;27.00;67282.00
1724240049.928;300;27.00;67282.00
1724240049.978;300;28.00;6.00
1724240050.028;300;28.00;6.00
1724240050.078;300;28.00;6.00
1724240050.128;300;28.00;51237.00
1724240050.178;300;28.00;2671.00
1724240050.229;300;28.00;2671.00
1724240050.280;300;28.00;2671.00
1724240050.330;300;27.00;89215.00
1724240050.380;300;28.00;6.00
1724240050.430;300;28.00;6.00
1724240050.480;300;28.00;6.00
1724240050.530;300;28.00;6.00
1724240050.580;300;28.00;52973.00
1724240050.630;300;28.00;52973.00
1724240050.680;300;27.00;86.00
1724240050.730;300;28.00;6.00
1724240050.780;300;28.00;6.00
1724240050.830;300;28.00;6.00
1724240050.879;300;28.00;6.00
1724240050.929;300;28.00;6.00
1724240050.980;300;28.00;6.00
1724240051.029;300;28.00;6.00
1724240051.079;300;27.00;46281.00
1724240051.129;300;28.00;24941.00
1724240051.179;300;28.00;24941.00
1724240051.229;300;28.00;24941.00
1724240051.279;300;28.00;6.00
1724240051.329;300;28.00;6.00
1724240051.379;300;28.00;6.00
1724240051.429;300;28.00;2752.00
1724240051.479;300;27.00;2813.00
1724240051.529;300;27.00;2813.00
1724240051.579;300;28.00;6.00
1724240051.629;300;28.00;2121.00
1724240051.680;300;28.00;2121.00
1724240051.730;300;28.00;2121.00
1724240051.780;300;28.00;56215.00
1724240051.830;300;27.00;6305.00
1724240051.880;300;27.00;6305.00
1724240051.930;300;27.00;6305.00
1724240051.981;300;28.00;55283.00
1724240052.031;300;28.00;55283.00
1724240052.081;300;28.00;55283.00
1724240052.131;300;28.00;21243.00
1724240052.181;300;28.00;21243.00
1724240052.231;300;28.00;21243.00
1724240052.281;300;28.00;1076.00
1724240069.228;491;10.00;43632.00
1724240069.278;565;10.00;52491.00
1724240069.328;572;10.00;53391.00
1724240069.378;572;10.00;53391.00
1724240069.428;569;10.00;52954.00
1724240069.478;590;10.00;55535.00
1724240069.528;590;10.00;55535.00
1724240069.578;590;10.00;55535.00
1724240069.628;579;10.00;54126.00
1724240069.678;579;10.00;54126.00
1724240069.728;579;10.00;54126.00
1724240069.778;600;10.00;56615.00
1724240069.828;593;10.00;55809.00
1724240069.878;593;10.00;55809.00
1724240069.928;581;10.00;54363.00
1724240069.978;584;10.00;54821.00
1724240070.028;584;10.00;54821.00
1724240070.078;584;10.00;54821.00
1724240070.128;589;10.00;55340.00
1724240070.178;594;10.00;55950.00
1724240070.228;594;10.00;55950.00
1724240070.278;598;10.00;56456.00
1724240070.328;600;10.00;56615.00
1724240070.378;600;10.00;56615.00
1724240070.430;600;10.00;56615.00
1724240070.477;577;10.00;53910.00
1724240070.528;590;10.00;55526.00
1724240070.578;590;10.00;55526.00
1724240070.627;590;10.00;55526.00
1724240070.677;577;10.00;53915.00
1724240070.727;574;10.00;53626.00
1724240070.777;574;10.00;53626.00
1724240070.828;585;10.00;54891.00
1724240070.878;600;10.00;56615.00
1724240070.928;600;10.00;56615.00
1724240070.978;600;10.00;56615.00
1724240071.028;590;10.00;55426.00
1724240071.078;594;10.00;55926.00
1724240071.128;594;10.00;55926.00
1724240071.178;594;10.00;55926.00
1724240071.227;598;10.00;56415.00
1724240071.277;594;10.00;56012.00
1724240071.327;594;10.00;56012.00
1724240071.377;594;10.00;56012.00
1724240071.428;580;10.00;54331.00
1724240071.479;591;10.00;55658.00
1724240071.528;591;10.00;55658.00
1724240071.578;568;10.00;52851.00
1724240071.628;566;10.00;52654.00
1724240071.678;566;10.00;52654.00
1724240071.729;566;10.00;52654.00
1724240071.779;600;10.00;56615.00
1724240071.829;600;10.00;56615.00
1724240071.879;600;10.00;56615.00
1724240071.929;600;10.00;56615.00
1724240071.979;579;10.00;54188.00
1724240072.029;579;10.00;54188.00
1724240072.079;579;10.00;54188.00
1724240072.129;583;10.00;54646.00
1724240072.179;577;10.00;53896.00
1724240072.229;577;10.00;53896.00
1724240072.279;577;10.00;53896.00
1724240072.329;577;10.00;53896.00
1724240072.379;586;10.00;55027.00
1724240072.429;584;10.00;54800.00
1724240072.479;584;10.00;54800.00
1724240072.529;584;10.00;54800.00
1724240072.579;600;10.00;56615.00
1724240072.629;600;10.00;56615.00
1724240072.679;600;10.00;56615.00
1724240072.729;589;10.00;55399.00
1724240072.779;600;10.00;56615.00
1724240072.829;600;10.00;56615.00
1724240072.879;574;10.00;53616.00
1724240072.929;586;10.00;55025.00
1724240072.979;586;10.00;55025.00
1724240073.029;586;10.00;55025.00
1724240073.079;600;10.00;56615.00
1724240073.129;564;10.00;52337.00
1724240073.179;573;10.00;53512.00
1724240073.229;573;10.00;53512.00
1724240073.279;596;10.00;56202.00
1724240073.329;569;10.00;52925.00
1724240073.379;569;10.00;52925.00
1724240073.429;569;10.00;52925.00
1724240073.479;568;10.00;52909.00
1724240073.529;600;10.00;56615.00
1724240073.579;600;10.00;56615.00
1724240073.629;600;10.00;56615.00
1724240073.679;558;10.00;51718.00
1724240073.729;598;10.00;56391.00
1724240073.779;598;10.00;56391.00
1724240073.829;573;10.00;53405.00
1724240073.879;578;10.00;54017.00
1724240073.929;578;10.00;54017.00
1724240073.979;578;10.00;54017.00
1724240074.029;597;10.00;56366.00
1724240074.082;600;10.00;56615.00
1724240074.129;600;10.00;56615.00
1724240074.179;600;10.00;56615.00
1724240074.230;566;10.00;52562.00
1724240074.280;579;10.00;54160.00
1724240074.330;579;10.00;54160.00
1724240074.380;558;10.00;51702.00
1724240074.430;584;10.00;54759.00
1724240074.480;584;10.00;54759.00
1724240074.529;584;10.00;54759.00
1724240074.579;580;10.00;54278.00
1724240081.661;580;10.00;54262.00
1724240081.711;600;10.00;56615.00
1724240081.762;600;10.00;56615.00
1724240081.812;600;10.00;56615.00
1724240081.862;600;10.00;56615.00
1724240081.912;600;10.00;56615.00
1724240081.962;600;10.00;56615.00
1724240082.011;600;10.00;56615.00
1724240082.062;600;10.00;56615.00
1724240082.112;589;10.00;55309.00
1724240082.162;589;10.00;55309.00
1724240082.212;589;10.00;55309.00
1724240082.261;580;10.00;54274.00
1724240082.311;580;10.00;54274.00
1724240082.361;580;10.00;54274.00
1724240082.411;588;10.00;55267.00
1724240082.461;582;10.00;54551.00
1724240082.511;582;10.00;54551.00
1724240082.562;568;10.00;52878.00
1724240082.612;600;10.00;56615.00
1724240082.663;600;10.00;56615.00
1724240082.713;600;10.00;56615.00
1724240082.762;600;10.00;56615.00
1724240082.813;578;10.00;54085.00
1724240082.862;578;10.00;54085.00
1724240082.912;578;10.00;54085.00
1724240082.962;454;10.00;39290.00
1724240083.012;454;10.00;39290.00
1724240083.062;454;10.00;39290.00
1724240083.113;594;10.00;55914.00
1724240083.163;578;10.00;54067.00
1724240083.213;578;10.00;54067.00
1724240083.263;578;10.00;54067.00
1724240083.313;578;10.00;54067.00
1724240083.363;573;10.00;53436.00
1724240083.413;573;10.00;53436.00
1724240083.463;573;10.00;53436.00
1724240083.513;600;10.00;56615.00
1724240083.564;600;10.00;56615.00
1724240083.614;600;10.00;56615.00
1724240083.664;600;10.00;56615.00
1724240083.714;569;10.00;53037.00
1724240083.764;572;10.00;53335.00
1724240083.814;572;10.00;53335.00
1724240083.863;572;10.00;53335.00
1724240083.913;499;10.00;44608.00
1724240083.963;600;10.00;56615.00
1724240084.013;600;10.00;56615.00
1724240084.064;600;10.00;56615.00
1724240084.114;568;10.00;52888.00
1724240084.164;585;10.00;54894.00
1724240084.214;585;10.00;54894.00
1724240084.264;600;10.00;56615.00
1724240084.314;561;10.00;52066.00
1724240084.364;561;10.00;52066.00
1724240084.414;561;10.00;52066.00
1724240084.463;595;10.00;56037.00
1724240084.513;595;10.00;56073.00
1724240084.563;595;10.00;56073.00
1724240084.613;595;10.00;56073.00
1724240084.664;600;10.00;56615.00
1724240084.714;600;10.00;56615.00
1724240084.764;600;10.00;56615.00
1724240084.814;576;10.00;53755.00
1724240084.864;491;10.00;43729.00
1724240084.914;491;10.00;43729.00
1724240084.964;491;10.00;43729.00
1724240085.014;518;10.00;46934.00
1724240085.063;541;10.00;49682.00
1724240085.113;541;10.00;49682.00
1724240085.163;541;10.00;49682.00
1724240085.213;597;10.00;56362.00
1724240085.264;550;10.00;50758.00
1724240085.314;550;10.00;50758.00
1724240085.364;590;10.00;55508.00
1724240085.414;595;10.00;56054.00
1724240085.464;595;10.00;56054.00
1724240085.515;595;10.00;56054.00
1724240085.564;586;10.00;55048.00
1724240085.614;586;10.00;55048.00
1724240085.664;586;10.00;55048.00
1724240085.714;588;10.00;55194.00
1724240085.764;531;10.00;48485.00
1724240085.814;531;10.00;48485.00
1724240085.873;531;10.00;48485.00
1724240085.914;547;10.00;50304.00
1724240085.964;574;10.00;53629.00
1724240086.014;574;10.00;53629.00
1724240086.064;574;10.00;53629.00
1724240086.114;600;10.00;56615.00
1724240086.165;588;10.00;55271.00
1724240086.215;597;10.00;56343.00
1724240086.265;597;10.00;56343.00
1724240086.315;579;10.00;54129.00
1724240086.366;567;10.00;52696.00
1724240086.416;567;10.00;52696.00
1724240086.466;567;10.00;52696.00
1724240086.516;584;10.00;54730.00
1724240086.566;576;10.00;53829.00
1724240086.616;576;10.00;53829.00
1724240086.666;576;10.00;53829.00
1724240086.716;597;10.00;56306.00
1724240086.766;577;10.00;53971.00
1724240086.816;577;10.00;53971.00
1724240086.866;598;10.00;56475.00
1724240086.916;600;10.00;56615.00
1724240086.966;600;10.00;56615.00
1724240087.016;600;10.00;56615.00
1724240087.066;572;10.00;53305.00
1724240094.168;550;10.00;50664.00
1724240094.218;600;10.00;56615.00
1724240094.268;577;10.00;53985.00
1724240094.318;577;10.00;53985.00
1724240094.368;564;10.00;52377.00
1724240094.418;569;10.00;53037.00
1724240094.468;569;10.00;53037.00
1724240094.519;569;10.00;53037.00
1724240094.569;579;10.00;54121.00
1724240094.619;580;10.00;54304.00
1724240094.669;580;10.00;54304.00
1724240094.718;562;10.00;52178.00
1724240094.769;600;10.00;56615.00
1724240094.819;600;10.00;56615.00
1724240094.869;600;10.00;56615.00
1724240094.919;597;10.00;56311.00
1724240094.969;595;10.00;56024.00
1724240095.019;595;10.00;56024.00
1724240095.069;595;10.00;56024.00
1724240095.118;600;10.00;56615.00
1724240095.168;590;10.00;55425.00
1724240095.218;590;10.00;55425.00
1724240095.268;600;10.00;56615.00
1724240095.318;584;10.00;54815.00
1724240095.368;584;10.00;54815.00
1724240095.418;584;10.00;54815.00
1724240095.468;600;10.00;56615.00
1724240095.518;600;10.00;56615.00
1724240095.568;600;10.00;56615.00
1724240095.618;600;10.00;56615.00
1724240095.669;589;10.00;55412.00
1724240095.720;589;10.00;55412.00
1724240095.770;580;10.00;54276.00
1724240095.820;600;10.00;56615.00
1724240095.870;600;10.00;56615.00
1724240095.920;600;10.00;56615.00
1724240095.970;571;10.00;53237.00
1724240096.020;582;10.00;54475.00
1724240096.070;582;10.00;54475.00
1724240096.120;600;10.00;56615.00
1724240096.170;598;10.00;56491.00
1724240096.220;598;10.00;56491.00
1724240096.270;598;10.00;56491.00
1724240096.320;577;10.00;53985.00
1724240096.370;567;10.00;52707.00
1724240096.420;567;10.00;52707.00
1724240096.470;567;10.00;52707.00
1724240096.521;596;10.00;56161.00
1724240096.571;596;10.00;56161.00
1724240096.621;596;10.00;56161.00
1724240096.671;567;10.00;52685.00
1724240096.721;554;10.00;51247.00
1724240096.771;554;10.00;51247.00
1724240096.821;554;10.00;51247.00
1724240096.871;554;10.00;51247.00
1724240096.921;583;10.00;54671.00
1724240096.971;582;10.00;54506.00
1724240097.022;582;10.00;54506.00
1724240097.072;563;10.00;52248.00
1724240097.122;565;10.00;52489.00
1724240097.172;565;10.00;52489.00
1724240097.222;565;10.00;52489.00
1724240097.272;582;10.00;54530.00
1724240097.322;600;10.00;56615.00
1724240097.372;600;10.00;56615.00
1724240097.421;600;10.00;56615.00
1724240097.471;600;10.00;56615.00
1724240097.521;600;10.00;56615.00
1724240097.572;600;10.00;56615.00
1724240097.622;579;10.00;54184.00
1724240097.672;581;10.00;54423.00
1724240097.722;581;10.00;54423.00
1724240097.772;581;10.00;54423.00
1724240097.822;580;10.00;54288.00
1724240097.872;560;10.00;51890.00
1724240097.921;560;10.00;51890.00
1724240097.972;560;10.00;51890.00
1724240098.022;597;10.00;56328.00
1724240098.072;600;10.00;56615.00
1724240098.122;600;10.00;56615.00
1724240098.172;600;10.00;56615.00
1724240098.222;575;10.00;53691.00
1724240098.272;600;10.00;56615.00
1724240098.321;600;10.00;56615.00
1724240098.371;600;10.00;56615.00
1724240098.421;600;10.00;56615.00
1724240098.471;574;10.00;53544.00
1724240098.521;574;10.00;53544.00
1724240098.571;600;10.00;56615.00
1724240098.621;573;10.00;53513.00
1724240098.671;573;10.00;53513.00
1724240098.721;573;10.00;53513.00
1724240098.771;573;10.00;53513.00
1724240098.822;600;10.00;56615.00
1724240098.872;600;10.00;56615.00
1724240098.922;600;10.00;56615.00
1724240098.972;600;10.00;56615.00
1724240099.022;581;10.00;54397.00
1724240099.072;592;10.00;55696.00
1724240099.122;592;10.00;55696.00
1724240099.171;583;10.00;54685.00
1724240099.221;590;10.00;55535.00
1724240099.271;590;10.00;55535.00
1724240099.321;590;10.00;55535.00
1724240099.372;588;10.00;55286.00
1724240099.422;590;10.00;55476.00
1724240099.472;590;10.00;55476.00
1724240099.522;593;10.00;55818.00
