UnixTimestamp;Microseconds;MilliAmpere;BaseValue
1724949274.747;500;1.00
1724949274.796;500;1.00
1724949274.846;500;1.00
1724949274.897;500;1.00
1724949274.948;500;1.00
1724949274.997;500;1.00
1724949275.047;500;1.00
1724949275.097;500;1.00
1724949275.148;500;1.00
1724949275.197;500;1.00
1724949275.247;500;1.00
1724949275.297;500;1.00
1724949275.348;500;1.00
1724949275.397;500;1.00
1724949275.448;500;1.00
1724949275.498;500;1.00
1724949275.548;500;1.00
1724949275.597;500;1.00
1724949275.648;500;1.00
1724949275.698;500;1.00
1724949275.748;500;1.00
1724949275.798;500;1.00
1724949275.848;500;1.00
1724949281.236;1;40.00
1724949281.286;1;40.00
1724949281.336;1;40.00
1724949281.386;1;40.00
1724949281.436;1;40.00
1724949281.487;1;40.00
1724949281.537;1;40.00
1724949281.586;1;40.00
1724949281.637;1;40.00
1724949281.686;1;40.00
1724949281.737;1;40.00
1724949281.786;1;40.00
1724949281.836;1;40.00
1724949281.886;1;40.00
1724949281.936;1;40.00
1724949281.987;1;40.00
1724949282.036;1;40.00
1724949282.087;1;40.00
1724949282.136;1;40.00
1724949282.188;1;40.00
1724949282.238;1;40.00
1724949470.016;500;7.69;33164.27
1724949470.066;500;8.29;33505.80
1724949470.116;500;8.29;33505.80
1724949470.166;500;8.29;33505.80
1724949470.266;500;10.00;34485.00
1724949470.316;500;10.00;34485.00
1724949470.366;500;10.00;34485.00
1724949470.416;500;10.00;34485.00
1724949470.466;500;10.00;34485.00
1724949470.516;500;10.00;34485.00
1724949470.566;500;10.00;34485.00
1724949470.616;500;10.00;34485.00
1724949470.666;500;9.89;34424.40
1724949470.716;500;9.89;34424.40
1724949470.767;500;9.89;34424.40
1724949470.818;500;9.89;34424.40
1724949470.868;500;8.91;33861.33
1724949470.917;500;9.61;34264.54
1724949470.968;500;9.61;34264.54
1724949471.018;500;9.61;34264.54
1724949471.067;500;9.61;34264.54
1724949471.117;500;9.52;34211.67
1724949471.168;500;9.93;34447.40
1724949471.218;500;9.93;34447.40
1724949471.267;500;9.93;34447.40
1724949471.318;500;10.00;34485.00
1724949471.368;500;10.00;34485.00
1724949471.417;500;10.00;34485.00
1724949471.467;500;10.00;34485.00
1724949471.518;500;10.00;34485.00
1724949471.568;500;10.00;34485.00
1724949471.618;500;9.26;34060.54
1724949471.668;500;10.00;34485.00
1724949471.717;500;10.00;34485.00
1724949471.768;500;10.00;34485.00
1724949471.818;500;10.00;34485.00
1724949471.869;500;10.00;34485.00
1724949471.919;500;10.00;34485.00
1724949471.968;500;10.00;34485.00
1724949472.020;500;10.00;34485.00
1724949472.070;500;10.00;34485.00
1724949472.119;500;10.00;34485.00
1724949472.170;500;9.10;33970.67
1724949472.220;500;9.13;33987.13
1724949472.271;500;9.52;34211.27
1724949472.320;500;9.52;34211.27
1724949472.372;500;9.52;34211.27
1724949472.422;500;9.96;34462.73
1724949472.471;500;8.98;33899.87
1724949472.523;500;8.98;33899.87
1724949472.572;500;8.98;33899.87
1724949472.624;500;8.98;33899.87
1724949472.674;500;9.90;34426.54
1724949472.724;500;10.00;34485.00
1724949472.774;500;8.92;33868.13
1724949472.823;500;8.94;33876.54
1724949472.874;500;8.94;33876.54
1724949472.924;500;8.94;33876.54
1724949472.975;500;8.94;33876.54
1724949473.024;500;9.08;33959.40
1724949473.075;500;10.00;34485.00
1724949473.124;500;8.80;33797.27
1724949473.174;500;8.80;33797.27
1724949473.224;500;8.80;33797.27
1724949473.274;500;8.80;33797.27
1724949473.324;500;10.00;34485.00
1724949473.374;500;9.66;34290.40
1724949473.425;500;9.86;34404.67
1724949473.475;500;9.86;34404.67
1724949473.525;500;9.86;34404.67
1724949473.575;500;9.86;34404.67
1724949473.625;500;10.00;34485.00
1724949473.675;500;9.28;34071.46
1724949473.725;500;9.35;34112.93
1724949473.775;500;9.35;34112.93
1724949473.825;500;9.35;34112.93
1724949473.875;500;9.35;34112.93
1724949473.926;500;10.00;34485.00
1724949473.975;500;10.00;34485.00
1724949474.025;500;10.00;34485.00
1724949474.075;500;10.00;34485.00
1724949474.126;500;10.00;34485.00
1724949474.175;500;9.73;34332.27
1724949474.226;500;9.83;34388.67
1724949474.275;500;10.00;34485.00
1724949474.325;500;10.00;34485.00
1724949474.376;500;10.00;34485.00
1724949474.426;500;9.90;34426.54
1724949474.477;500;9.69;34306.60
1724949474.526;500;9.69;34306.60
1724949474.576;500;9.69;34306.60
1724949474.626;500;9.69;34306.60
1724949474.676;500;9.97;34470.93
1724949474.726;500;9.67;34294.80
1724949474.776;500;9.79;34365.67
1724949474.827;500;9.87;34413.67
1724949474.877;500;9.87;34413.67
1724949474.927;500;9.87;34413.67
1724949474.976;500;9.87;34413.67
1724949475.026;500;10.00;34485.00
1724949475.076;500;9.40;34144.54
1724949475.126;500;10.00;34485.00
1724949475.176;500;10.00;34485.00
1724949475.226;500;10.00;34485.00
1724949475.277;500;10.00;34485.00
1724949475.327;500;9.46;34176.13
1724949490.724;500;7.85;33252.60
1724949490.924;500;7.45;33026.80
1724949490.974;500;8.17;33437.13
1724949491.025;500;8.57;33665.33
1724949491.075;500;8.57;33665.33
1724949491.126;500;8.57;33665.33
1724949491.175;500;10.00;34485.00
1724949491.226;500;10.00;34485.00
1724949491.275;500;10.00;34485.00
1724949491.326;500;10.00;34485.00
1724949491.375;500;9.00;33911.46
1724949491.426;500;9.33;34103.54
1724949491.476;500;9.33;34103.54
1724949491.527;500;9.33;34103.54
1724949491.576;500;9.33;34103.54
1724949491.626;500;9.66;34290.93
1724949491.676;500;9.59;34250.13
1724949491.726;500;9.01;33919.46
1724949491.776;500;9.01;33919.46
1724949491.826;500;9.01;33919.46
1724949491.877;500;9.01;33919.46
1724949491.927;500;8.84;33823.46
1724949491.976;500;10.00;34485.00
1724949492.026;500;10.00;34485.00
1724949492.077;500;9.35;34114.80
1724949492.127;500;9.35;34114.80
1724949492.176;500;9.35;34114.80
1724949492.227;500;9.43;34158.54
1724949492.277;500;9.66;34290.67
1724949492.326;500;9.68;34301.07
1724949492.377;500;9.68;34301.07
1724949492.426;500;9.68;34301.07
1724949492.478;500;9.68;34301.07
1724949492.528;500;10.00;34485.00
1724949492.579;500;10.00;34485.00
1724949492.629;500;10.00;34485.00
1724949492.679;500;10.00;34485.00
1724949492.729;500;10.00;34485.00
1724949492.790;500;10.00;34485.00
1724949492.835;500;10.00;34485.00
1724949492.885;500;10.00;34485.00
1724949492.936;500;10.00;34485.00
1724949492.986;500;10.00;34485.00
1724949493.035;500;10.00;34485.00
1724949493.086;500;10.00;34485.00
1724949493.135;500;10.00;34485.00
1724949493.186;500;9.86;34403.07
1724949493.236;500;10.00;34485.00
1724949493.286;500;10.00;34485.00
1724949493.336;500;10.00;34485.00
1724949493.387;500;10.00;34485.00
1724949493.437;500;9.72;34325.80
1724949493.487;500;10.00;34485.00
1724949493.537;500;10.00;34485.00
1724949493.586;500;10.00;34485.00
1724949493.637;500;10.00;34485.00
1724949493.687;500;9.40;34142.93
1724949493.737;500;10.00;34485.00
1724949493.787;500;9.88;34416.40
1724949493.837;500;10.00;34485.00
1724949493.887;500;10.00;34485.00
1724949493.937;500;10.00;34485.00
1724949493.987;500;10.00;34485.00
1724949494.038;500;10.00;34485.00
1724949494.087;500;10.00;34485.00
1724949494.138;500;10.00;34485.00
1724949494.188;500;9.60;34254.20
1724949494.237;500;9.60;34254.20
1724949494.287;500;9.60;34254.20
1724949494.338;500;9.48;34188.46
1724949494.387;500;9.24;34053.20
1724949494.438;500;9.02;33923.60
1724949494.488;500;9.02;33923.60
1724949494.537;500;9.02;33923.60
1724949494.588;500;9.02;33923.60
1724949494.639;500;10.00;34485.00
1724949494.688;500;9.48;34190.67
1724949494.739;500;9.33;34101.00
1724949494.788;500;8.92;33869.13
1724949494.838;500;8.92;33869.13
1724949494.889;500;8.92;33869.13
1724949494.939;500;9.36;34121.13
1724949494.989;500;8.80;33797.40
1724949495.039;500;9.27;34069.07
1724949495.089;500;9.27;34069.07
1724949495.139;500;9.27;34069.07
1724949495.189;500;9.27;34069.07
1724949495.239;500;10.00;34485.00
1724949495.297;500;9.94;34449.46
1724949495.343;500;9.37;34123.46
1724949495.392;500;10.00;34485.00
1724949495.443;500;10.00;34485.00
1724949495.492;500;10.00;34485.00
1724949495.543;500;10.00;34485.00
1724949495.592;500;10.00;34485.00
1724949495.642;500;10.00;34485.00
1724949495.693;500;9.70;34311.27
1724949495.742;500;9.70;34311.27
1724949495.793;500;9.70;34311.27
1724949495.843;500;10.00;34485.00
1724949495.892;500;9.59;34251.20
1724949495.943;500;9.82;34380.46
1724949495.993;500;9.61;34264.67
1724949496.043;500;9.61;34264.67
1724949496.092;500;9.61;34264.67
1724949496.143;500;10.00;34485.00
1724949496.193;500;9.80;34371.93
1724949496.244;500;10.00;34485.00
1724949496.293;500;10.00;34485.00
1724949496.343;500;10.00;34485.00
1724949496.394;500;10.00;34485.00
1724949496.445;500;10.00;34485.00
1724949496.494;500;9.90;34426.20
1724949496.546;500;9.16;34004.54
1724949496.595;500;8.84;33822.73
1724949496.646;500;8.84;33822.73
1724949496.696;500;8.84;33822.73
1724949496.746;500;8.84;33822.73
1724949496.795;500;9.97;34467.80
1724949496.846;500;9.26;34063.67
1724949496.895;500;10.00;34485.00
1724949496.946;500;10.00;34485.00
1724949496.996;500;10.00;34485.00
1724949497.046;500;10.00;34485.00
1724949497.096;500;10.00;34485.00
1724949497.146;500;9.80;34369.00
1724949497.196;500;8.70;33739.54
1724949497.246;500;8.70;33739.54
1724949497.297;500;8.70;33739.54
1724949497.347;500;10.00;34485.00
1724949497.396;500;10.00;34485.00
1724949497.447;500;10.00;34485.00
1724949497.497;500;10.00;34485.00
1724949497.547;500;10.00;34485.00
1724949497.597;500;10.00;34485.00
1724949497.647;500;10.00;34485.00
1724949497.698;500;10.00;34485.00
1724949497.748;500;10.00;34485.00
1724949497.797;500;10.00;34485.00
1724949497.847;500;10.00;34485.00
1724949497.899;500;9.45;34170.33
1724949497.948;500;9.45;34170.33
1724949497.998;500;9.31;34091.00
1724949498.049;500;9.65;34287.67
1724949498.099;500;9.65;34287.67
1724949498.149;500;9.65;34287.67
1724949498.199;500;9.65;34287.67
1724949498.249;500;9.33;34102.87
1724949498.299;500;10.00;34485.00
1724949498.349;500;10.00;34485.00
1724949516.531;500;7.87;33265.40
1724949516.580;500;7.87;33265.40
1724949516.632;500;7.87;33265.40
1724949516.732;500;7.83;33245.40
1724949516.782;500;9.23;34047.13
1724949516.831;500;9.23;34047.13
1724949516.883;500;9.23;34047.13
1724949516.933;500;9.36;34119.60
1724949516.982;500;8.23;33473.60
1724949517.033;500;9.96;34462.33
1724949517.082;500;9.96;34462.33
1724949517.133;500;9.96;34462.33
1724949517.183;500;10.00;34485.00
1724949517.233;500;8.66;33718.73
1724949517.283;500;8.66;33718.73
1724949517.334;500;8.66;33718.73
1724949517.384;500;8.66;33718.73
1724949517.435;500;10.00;34485.00
1724949517.485;500;10.00;34485.00
1724949517.535;500;9.42;34155.33
1724949517.584;500;9.36;34121.27
1724949517.635;500;9.61;34264.54
1724949517.685;500;9.61;34264.54
1724949517.735;500;9.61;34264.54
1724949517.785;500;9.61;34264.54
1724949517.835;500;10.00;34485.00
1724949517.885;500;10.00;34485.00
1724949517.935;500;10.00;34485.00
1724949517.986;500;10.00;34485.00
1724949518.036;500;10.00;34485.00
1724949518.086;500;10.00;34485.00
1724949518.135;500;10.00;34485.00
1724949518.186;500;10.00;34485.00
1724949518.236;500;9.14;33993.20
1724949518.286;500;9.75;34341.80
1724949518.335;500;9.69;34310.60
1724949518.386;500;9.69;34310.60
1724949518.436;500;9.69;34310.60
1724949518.485;500;9.70;34311.93
1724949518.535;500;10.00;34485.00
1724949518.586;500;9.31;34089.20
1724949518.636;500;10.00;34485.00
1724949518.686;500;10.00;34485.00
1724949518.735;500;10.00;34485.00
1724949518.785;500;9.57;34238.87
1724949518.836;500;9.44;34165.87
1724949518.886;500;9.44;34165.87
1724949518.936;500;9.81;34379.60
1724949518.987;500;9.81;34379.60
1724949519.037;500;9.81;34379.60
1724949519.087;500;9.61;34261.20
1724949519.137;500;9.63;34274.33
1724949519.186;500;9.63;34274.33
1724949519.237;500;9.63;34274.33
1724949519.287;500;9.80;34373.20
1724949519.337;500;9.99;34481.20
1724949519.387;500;10.00;34485.00
1724949519.437;500;10.00;34485.00
1724949519.487;500;10.00;34485.00
1724949519.537;500;10.00;34485.00
1724949519.587;500;10.00;34485.00
1724949519.637;500;8.99;33906.46
1724949519.687;500;10.00;34485.00
1724949519.736;500;10.00;34485.00
1724949519.787;500;10.00;34485.00
1724949519.837;500;10.00;34485.00
1724949519.887;500;10.00;34485.00
1724949519.937;500;9.91;34435.07
1724949519.987;500;10.00;34485.00
1724949520.037;500;10.00;34485.00
1724949520.087;500;10.00;34485.00
1724949520.136;500;10.00;34485.00
1724949520.187;500;9.80;34373.07
1724949520.237;500;9.20;34029.93
1724949520.287;500;10.00;34485.00
1724949520.337;500;10.00;34485.00
1724949520.387;500;10.00;34485.00
1724949520.437;500;10.00;34485.00
1724949520.488;500;10.00;34485.00
1724949520.537;500;8.84;33821.00
1724949520.588;500;9.84;34396.20
1724949520.638;500;9.84;34396.20
1724949520.687;500;9.84;34396.20
1724949520.738;500;9.84;34396.20
1724949520.787;500;8.92;33867.13
1724949520.838;500;9.83;34388.07
1724949520.887;500;9.38;34129.93
1724949520.938;500;9.38;34129.93
1724949520.988;500;9.38;34129.93
1724949521.039;500;9.38;34129.93
1724949521.088;500;9.42;34153.40
1724949521.139;500;9.69;34309.33
1724949521.189;500;9.69;34309.33
1724949521.239;500;9.69;34309.33
1724949521.289;500;9.69;34309.33
1724949521.340;500;9.86;34406.80
1724949521.389;500;9.24;34049.67
1724949521.440;500;9.88;34416.40
1724949521.489;500;9.88;34416.40
1724949521.548;500;9.88;34416.40
1724949521.594;500;9.88;34416.40
1724949521.645;500;9.27;34065.67
1724949521.694;500;9.98;34473.33
1724949521.744;500;9.89;34420.73
1724949521.795;500;9.89;34420.73
1724949521.845;500;9.89;34420.73
1724949521.895;500;9.92;34440.67
1724949521.945;500;8.67;33726.20
1724949521.995;500;8.93;33871.73
1724949522.045;500;8.93;33871.73
1724949522.095;500;8.93;33871.73
1724949522.145;500;8.93;33871.73
1724949522.195;500;9.07;33952.80
1724949522.246;500;10.00;34485.00
1724949522.295;500;9.86;34407.27
1724949522.346;500;9.86;34407.27
1724949522.396;500;9.86;34407.27
1724949522.446;500;9.86;34407.27
1724949522.496;500;10.00;34485.00
1724949522.546;500;9.37;34127.67
1724949522.596;500;9.07;33953.54
1724949522.646;500;9.07;33953.54
1724949522.696;500;9.07;33953.54
1724949522.746;500;9.07;33953.54
1724949522.796;500;10.00;34485.00
1724949522.846;500;9.31;34089.73
1724949522.897;500;9.51;34207.87
1724949522.947;500;9.36;34119.13
1724949522.996;500;9.36;34119.13
1724949523.047;500;9.36;34119.13
1724949523.096;500;9.36;34119.13
1724949523.147;500;9.36;34119.13
1724949523.197;500;9.85;34398.27
1724949523.247;500;9.78;34357.73
1724949523.297;500;9.23;34044.93
1724949523.347;500;9.29;34078.20
1724949523.397;500;9.29;34078.20
1724949523.447;500;9.29;34078.20
1724949523.497;500;9.29;34078.20
1724949523.547;500;9.80;34372.73
1724949523.596;500;10.00;34485.00
1724949523.647;500;9.95;34458.54
1724949523.697;500;9.63;34274.54
1724949523.747;500;9.63;34274.54
1724949523.797;500;9.63;34274.54
1724949523.847;500;9.63;34274.54
1724949523.897;500;10.00;34485.00
1724949523.948;500;9.85;34401.80
1724949523.997;500;10.00;34485.00
1724949524.049;500;9.59;34253.46
1724949524.099;500;9.59;34253.46
1724949524.148;500;9.59;34253.46
1724949524.198;500;9.59;34250.07
1724949524.249;500;9.13;33989.67
1724949524.298;500;9.59;34250.07
1724949524.348;500;10.00;34485.00
1724950106.669;50;7.48;33042.00
1724950106.719;50;7.48;33042.00
1724950106.769;50;7.48;33042.00
1724950106.819;50;7.48;33042.00
1724950106.870;50;7.78;33211.93
1724950106.919;50;9.87;34408.67
1724950106.970;50;9.86;34407.20
1724950107.019;50;9.87;34410.80
1724950107.070;50;9.87;34410.80
1724950107.119;50;9.87;34410.80
1724950107.169;50;8.05;33367.60
1724950107.219;50;10.00;34485.00
1724950107.271;50;9.85;34398.27
1724950107.321;50;10.00;34485.00
1724950107.372;50;10.00;34485.00
1724950107.421;50;10.00;34485.00
1724950107.471;50;9.76;34349.87
1724950107.522;50;9.30;34085.00
1724950107.571;50;9.68;34303.33
1724950107.623;50;8.20;33452.40
1724950107.673;50;8.20;33452.40
1724950107.723;50;8.20;33452.40
1724950107.772;50;8.20;33452.40
1724950107.823;50;8.20;33452.40
1724950107.873;50;8.27;33494.33
1724950107.923;50;9.89;34422.27
1724950107.974;50;9.91;34431.60
1724950108.024;50;9.98;34473.73
1724950108.074;50;9.99;34482.27
1724950108.124;50;9.99;34482.27
1724950108.175;50;9.99;34482.27
1724950108.224;50;9.99;34482.27
1724950108.275;50;9.76;34350.80
1724950108.325;50;8.37;33553.54
1724950108.375;50;9.87;34411.20
1724950108.425;50;9.02;33925.80
1724950108.475;50;9.02;33925.80
1724950108.525;50;9.02;33925.80
1724950108.575;50;9.02;33925.80
1724950108.625;50;9.19;34020.73
1724950108.676;50;8.20;33458.00
1724950108.725;50;8.38;33559.33
1724950108.775;50;9.29;34081.40
1724950108.825;50;9.76;34348.13
1724950108.875;50;9.76;34348.13
1724950108.925;50;9.76;34348.13
1724950108.975;50;8.57;33668.67
1724950109.025;50;9.91;34433.40
1724950109.075;50;9.78;34361.46
1724950109.125;50;8.40;33570.73
1724950109.175;50;8.40;33570.73
1724950109.226;50;8.40;33570.73
1724950109.275;50;9.92;34442.13
1724950109.325;50;10.00;34485.00
1724950109.376;50;9.08;33960.87
1724950109.425;50;9.08;33960.87
1724950109.476;50;9.08;33960.87
1724950109.526;50;9.08;33960.87
1724950109.575;50;9.50;34201.60
1724950109.626;50;9.67;34299.67
1724950109.676;50;9.65;34286.87
1724950109.726;50;9.65;34286.87
1724950109.775;50;9.65;34286.87
1724950109.826;50;9.65;34286.87
1724950109.877;50;9.06;33949.87
1724950109.927;50;10.00;34485.00
1724950109.977;50;8.48;33613.40
1724950110.028;50;7.89;33275.20
1724950110.077;50;7.89;33275.20
1724950110.127;50;7.89;33275.20
1724950110.177;50;7.78;33212.54
1724950110.228;50;9.82;34383.60
1724950110.278;50;8.66;33719.80
1724950110.328;50;8.84;33824.46
1724950110.377;50;8.84;33824.46
1724950110.427;50;8.84;33824.46
1724950110.478;50;9.83;34387.80
1724950110.528;50;9.45;34169.27
1724950110.578;50;8.57;33668.20
1724950110.629;50;9.03;33928.93
1724950110.679;50;9.03;33928.93
1724950110.729;50;9.03;33928.93
1724950110.779;50;9.54;34222.67
1724950110.828;50;7.66;33145.40
1724950110.879;50;7.66;33145.40
1724950110.929;50;7.66;33145.40
1724950110.979;50;9.70;34315.46
1724950111.029;50;9.68;34301.93
1724950111.079;50;9.95;34460.00
1724950111.130;50;9.95;34460.00
1724950111.180;50;9.95;34460.00
1724950111.229;50;9.95;34460.00
1724950111.280;50;8.86;33835.40
1724950111.330;50;9.86;34406.40
1724950111.380;50;9.86;34406.40
1724950111.429;50;9.86;34406.40
1724950111.480;50;9.86;34406.40
1724950111.531;50;7.47;33034.54
1724950111.581;50;7.74;33191.07
1724950111.632;50;9.34;34107.60
1724950111.681;50;9.34;34107.60
1724950111.731;50;9.34;34107.60
1724950111.781;50;9.34;34107.60
1724950111.833;50;8.11;33401.40
1724950111.882;50;9.99;34478.60
1724950111.982;50;8.24;33479.07
1724950112.033;50;8.24;33479.07
1724950112.084;50;8.24;33479.07
1724950112.134;50;8.24;33479.07
1724950112.184;50;7.96;33315.40
1724950112.235;50;7.60;33113.54
1724950112.285;50;9.95;34458.93
1724950112.336;50;10.00;34485.00
1724950112.385;50;10.00;34485.00
1724950112.437;50;10.00;34485.00
1724950112.486;50;9.84;34393.87
1724950112.537;50;8.51;33630.46
1724950112.587;50;9.99;34481.27
1724950112.638;50;9.97;34470.93
1724950112.688;50;9.97;34470.93
1724950112.738;50;9.97;34470.93
1724950112.788;50;9.97;34470.93
1724950112.838;50;9.97;34470.93
1724950112.888;50;10.00;34485.00
1724950112.938;50;9.97;34467.20
1724950112.988;50;7.98;33331.40
1724950113.038;50;8.48;33618.20
1724950113.088;50;8.48;33618.20
1724950113.139;50;8.48;33618.20
1724950113.189;50;8.38;33558.20
1724950113.239;50;9.36;34121.27
1724950113.289;50;9.78;34358.60
1724950113.340;50;9.90;34426.00
1724950113.390;50;9.90;34426.00
1724950113.440;50;9.90;34426.00
1724950113.489;50;9.90;34426.00
1724950113.540;50;8.69;33733.13
1724950113.591;50;9.17;34009.87
1724950113.641;50;8.74;33763.13
1724950113.691;50;9.76;34349.87
1724950113.742;50;9.53;34217.73
1724950113.792;50;9.53;34217.73
1724950113.842;50;9.53;34217.73
1724950113.891;50;8.64;33704.80
1724950113.942;50;9.00;33914.93
1724950113.991;50;8.90;33855.20
1724950114.041;50;8.92;33868.33
1724950114.093;50;8.92;33868.33
1724950114.143;50;8.92;33868.33
1724950114.193;50;9.87;34409.13
1724950114.243;50;9.86;34408.27
1724950114.293;50;7.57;33092.87
1724950114.343;50;7.57;33092.87
1724950114.393;50;7.57;33092.87
1724950114.443;50;7.57;33092.87
1724950114.493;50;7.81;33232.73
1724950114.543;50;8.27;33494.87
1724950114.593;50;8.27;33493.07
1724950131.332;50;7.60;33109.80
1724950131.382;50;7.60;33109.80
1724950131.432;50;7.60;33109.80
1724950131.481;50;7.60;33109.80
1724950131.532;50;9.42;34155.27
1724950131.582;50;9.04;33934.00
1724950131.632;50;9.04;33934.00
1724950131.682;50;9.04;33934.00
1724950131.732;50;9.04;33934.00
1724950131.783;50;8.89;33847.54
1724950131.832;50;8.25;33482.33
1724950131.882;50;9.14;33996.27
1724950131.933;50;9.14;33996.27
1724950131.983;50;9.14;33996.27
1724950132.033;50;9.14;33996.27
1724950132.083;50;8.51;33635.13
1724950132.133;50;9.86;34403.54
1724950132.183;50;8.78;33789.13
1724950132.233;50;8.78;33789.13
1724950132.283;50;8.78;33789.13
1724950132.333;50;8.78;33789.13
1724950132.383;50;8.26;33490.46
1724950132.433;50;10.00;34485.00
1724950132.484;50;10.00;34485.00
1724950132.534;50;9.16;34007.33
1724950132.584;50;9.16;34007.33
1724950132.634;50;9.16;34007.33
1724950132.684;50;9.16;34007.33
1724950132.734;50;9.36;34121.27
1724950132.784;50;9.36;34121.27
1724950132.834;50;9.94;34451.93
1724950132.884;50;9.94;34451.93
1724950132.934;50;9.66;34293.80
1724950132.986;50;9.66;34293.80
1724950133.035;50;9.66;34293.80
1724950133.085;50;9.66;34293.80
1724950133.135;50;8.84;33819.80
1724950133.185;50;8.06;33377.46
1724950133.235;50;8.90;33857.00
1724950133.285;50;8.00;33337.87
1724950133.336;50;8.00;33337.87
1724950133.386;50;8.00;33337.87
1724950133.435;50;8.00;33337.87
1724950133.485;50;8.69;33736.27
1724950133.536;50;8.32;33521.13
1724950133.586;50;8.62;33697.00
1724950133.635;50;8.38;33560.73
1724950133.685;50;8.38;33560.73
1724950133.735;50;8.38;33560.73
1724950133.785;50;8.38;33560.73
1724950133.836;50;8.13;33415.20
1724950133.886;50;8.06;33373.33
1724950133.935;50;8.34;33533.33
1724950133.985;50;8.34;33533.33
1724950134.035;50;8.34;33533.33
1724950134.086;50;8.34;33533.33
1724950134.136;50;9.52;34209.87
1724950134.186;50;10.00;34485.00
1724950134.236;50;7.90;33286.13
1724950134.286;50;7.90;33286.13
1724950134.336;50;7.90;33286.13
1724950134.386;50;9.19;34020.46
1724950134.436;50;9.94;34451.60
1724950134.486;50;9.94;34451.60
1724950134.537;50;9.94;34451.60
1724950134.587;50;9.94;34451.60
1724950134.637;50;8.62;33696.73
1724950134.687;50;8.62;33696.73
1724950134.737;50;8.62;33696.73
1724950134.788;50;8.62;33696.73
1724950134.838;50;8.62;33695.93
1724950134.889;50;8.21;33463.40
1724950134.938;50;10.00;34485.00
1724950134.988;50;10.00;34485.00
1724950135.038;50;10.00;34485.00
1724950135.088;50;8.48;33616.20
1724950135.139;50;9.66;34290.20
1724950135.190;50;10.00;34485.00
1724950135.239;50;10.00;34485.00
1724950135.290;50;10.00;34485.00
1724950135.339;50;10.00;34485.00
1724950135.389;50;9.80;34371.00
1724950135.440;50;9.89;34422.54
1724950135.489;50;9.89;34422.54
1724950135.540;50;9.89;34422.54
1724950135.589;50;9.89;34422.54
1724950135.640;50;9.45;34171.60
1724950135.690;50;9.24;34052.33
1724950135.740;50;9.95;34455.60
1724950135.790;50;9.98;34474.80
1724950135.840;50;9.98;34474.80
1724950135.890;50;9.98;34474.80
1724950135.940;50;9.98;34474.80
1724950135.990;50;8.69;33735.93
1724950136.040;50;9.81;34379.87
1724950136.093;50;9.81;34379.87
1724950136.141;50;8.92;33868.67
1724950136.191;50;8.92;33868.67
1724950136.240;50;8.92;33868.67
1724950136.291;50;8.83;33816.13
1724950136.340;50;9.37;34127.33
1724950136.390;50;10.00;34485.00
1724950136.441;50;8.11;33405.93
1724950136.491;50;8.11;33405.93
1724950136.541;50;8.11;33405.93
1724950136.591;50;9.18;34017.67
1724950136.641;50;9.37;34122.60
1724950136.691;50;9.37;34122.60
1724950136.741;50;9.37;34122.60
1724950136.792;50;9.37;34122.60
1724950136.842;50;9.87;34414.27
1724950136.892;50;10.00;34485.00
1724950136.941;50;10.00;34485.00
1724950136.992;50;10.00;34485.00
1724950137.041;50;10.00;34485.00
1724950137.092;50;8.91;33860.54
1724950137.141;50;9.43;34158.67
1724950137.193;50;8.97;33893.54
1724950137.243;50;8.97;33893.54
1724950137.292;50;8.97;33893.54
1724950137.342;50;8.97;33893.54
1724950137.393;50;8.66;33715.87
1724950137.442;50;8.13;33417.46
1724950137.493;50;8.13;33414.80
1724950137.542;50;9.13;33987.93
1724950137.592;50;9.13;33987.93
1724950137.643;50;9.13;33987.93
1724950137.693;50;9.13;33987.93
1724950137.742;50;8.83;33818.33
1724950137.793;50;9.01;33920.46
1724950137.842;50;9.40;34140.60
1724950137.892;50;9.40;34140.60
1724950137.943;50;9.40;34140.60
1724950137.994;50;9.40;34140.60
1724950138.043;50;9.40;34140.60
1724950138.093;50;9.97;34466.13
1724950138.143;50;9.92;34441.73
1724950138.194;50;9.97;34467.07
1724950138.243;50;9.41;34146.60
1724950138.294;50;9.41;34146.60
1724950138.344;50;9.41;34146.60
1724950138.394;50;8.96;33890.46
1724950138.444;50;8.18;33441.33
1724950138.494;50;8.32;33526.60
1724950138.545;50;8.32;33526.60
1724950138.595;50;8.32;33526.60
1724950138.649;50;8.32;33526.60
1724950138.697;50;9.69;34306.07
1724950138.746;50;7.52;33064.67
1724950138.797;50;8.02;33349.73
1724950157.011;50;7.58;33102.54
1724950157.261;50;9.98;34473.40
1724950157.312;50;8.07;33379.00
1724950157.362;50;8.33;33531.40
1724950157.412;50;8.33;33531.40
1724950157.462;50;8.33;33531.40
1724950157.512;50;7.99;33336.33
1724950157.562;50;8.61;33692.40
1724950157.612;50;9.16;34007.33
1724950157.663;50;8.09;33390.07
1724950157.713;50;8.09;33390.07
1724950157.763;50;8.09;33390.07
1724950157.813;50;8.09;33390.07
1724950157.863;50;8.84;33822.00
1724950157.913;50;8.84;33822.00
1724950157.963;50;9.81;34376.67
1724950158.014;50;9.81;34376.67
1724950158.065;50;9.22;34037.07
1724950158.115;50;9.22;34037.07
1724950158.164;50;9.22;34037.07
1724950158.216;50;9.22;34037.07
1724950158.265;50;8.63;33701.60
1724950158.315;50;9.32;34096.87
1724950158.365;50;10.00;34485.00
1724950158.415;50;10.00;34485.00
1724950158.466;50;10.00;34485.00
1724950158.516;50;10.00;34485.00
1724950158.566;50;9.60;34259.40
1724950158.617;50;9.08;33960.46
1724950158.667;50;9.41;34150.60
1724950158.716;50;9.09;33964.27
1724950158.767;50;9.04;33937.80
1724950158.817;50;9.04;33937.80
1724950158.867;50;9.04;33937.80
1724950158.918;50;9.41;34146.87
1724950158.967;50;8.72;33752.93
1724950159.017;50;8.65;33712.54
1724950159.067;50;9.93;34446.13
1724950159.118;50;9.93;34446.13
1724950159.168;50;9.93;34446.13
1724950159.218;50;9.93;34446.13
1724950159.267;50;9.30;34084.13
1724950159.318;50;8.69;33733.46
1724950159.367;50;8.63;33702.54
1724950159.418;50;9.08;33959.60
1724950159.467;50;9.08;33959.60
1724950159.519;50;9.08;33959.60
1724950159.568;50;8.20;33456.27
1724950159.618;50;8.70;33741.73
1724950159.668;50;9.90;34429.73
1724950159.719;50;9.86;34406.27
1724950159.769;50;9.86;34406.27
1724950159.818;50;9.86;34406.27
1724950159.869;50;9.86;34406.27
1724950159.920;50;9.44;34165.13
1724950159.969;50;9.63;34272.80
1724950160.019;50;8.78;33785.73
1724950160.070;50;8.87;33837.46
1724950160.120;50;8.87;33837.46
1724950160.170;50;8.87;33837.46
1724950160.220;50;8.87;33837.46
1724950160.270;50;9.54;34224.54
1724950160.319;50;9.66;34292.67
1724950160.370;50;9.89;34425.00
1724950160.420;50;9.59;34248.67
1724950160.470;50;9.59;34248.67
1724950160.520;50;9.59;34248.67
1724950160.569;50;9.59;34248.67
1724950160.620;50;8.00;33343.00
1724950160.670;50;9.40;34142.67
1724950160.720;50;8.87;33839.60
1724950160.770;50;9.96;34464.67
1724950160.820;50;9.96;34464.67
1724950160.871;50;9.96;34464.67
1724950160.921;50;9.96;34464.67
1724950160.970;50;10.00;34485.00
1724950161.020;50;9.64;34279.20
1724950161.072;50;8.51;33632.54
1724950161.122;50;8.46;33601.54
1724950161.172;50;10.00;34485.00
1724950161.222;50;10.00;34485.00
1724950161.272;50;10.00;34485.00
1724950161.323;50;10.00;34485.00
1724950161.373;50;9.83;34385.80
1724950161.423;50;9.84;34393.93
1724950161.473;50;10.00;34485.00
1724950161.523;50;9.81;34379.54
1724950161.572;50;9.81;34379.54
1724950161.623;50;9.81;34379.54
1724950161.673;50;9.81;34379.54
1724950161.723;50;9.54;34222.73
1724950161.773;50;8.79;33790.73
1724950161.823;50;9.04;33933.60
1724950161.873;50;9.53;34218.27
1724950161.923;50;9.53;34218.27
1724950161.974;50;9.53;34218.27
1724950162.024;50;9.53;34218.27
1724950162.075;50;9.91;34434.33
1724950162.124;50;9.67;34296.20
1724950162.175;50;8.63;33703.07
1724950162.225;50;8.63;33703.07
1724950162.275;50;8.63;33703.07
1724950162.324;50;8.63;33703.07
1724950162.374;50;9.74;34334.67
1724950162.424;50;9.74;34336.67
1724950162.475;50;9.96;34460.67
1724950162.525;50;9.96;34460.67
1724950162.574;50;9.96;34460.67
1724950162.625;50;8.52;33637.73
1724950162.675;50;9.38;34133.60
1724950162.725;50;9.05;33943.60
1724950162.776;50;9.41;34147.67
1724950162.825;50;9.41;34147.67
1724950162.875;50;9.41;34147.67
1724950162.927;50;9.41;34147.67
1724950162.977;50;10.00;34485.00
1724950163.027;50;10.00;34485.00
1724950163.076;50;9.93;34446.73
1724950163.127;50;10.00;34485.00
1724950163.177;50;10.00;34485.00
1724950163.227;50;10.00;34485.00
1724950163.277;50;10.00;34485.00
1724950163.327;50;8.34;33536.20
1724950163.378;50;10.00;34485.00
1724950163.427;50;9.91;34433.46
1724950163.478;50;10.00;34485.00
1724950163.528;50;10.00;34485.00
1724950163.578;50;10.00;34485.00
1724950163.627;50;10.00;34485.00
1724950163.679;50;9.73;34331.54
1724950163.729;50;9.67;34297.60
1724950163.778;50;8.44;33595.33
1724950163.829;50;8.44;33595.33
1724950163.878;50;8.44;33595.33
1724950163.928;50;8.44;33595.33
1724950163.979;50;9.68;34304.13
1724950164.029;50;9.69;34308.46
1724950164.079;50;9.63;34271.73
1724950164.129;50;9.63;34271.73
1724950164.179;50;9.63;34271.73
1724950164.229;50;9.63;34271.73
1724950164.281;50;9.84;34393.07
1724950164.330;50;9.70;34311.54
1724950164.380;50;8.21;33460.60
1724950164.431;50;8.21;33460.60
1724950164.480;50;8.21;33460.60
1724950164.531;50;8.04;33362.40
1724950164.581;50;8.01;33344.60
1724950164.630;50;8.49;33621.87
1724950164.681;50;8.49;33621.87
1724950164.730;50;8.49;33621.87
1724950164.781;50;8.49;33621.87
1724950164.831;50;9.41;34145.73
1724950164.881;50;9.96;34462.27
1724950164.931;50;10.00;34485.00
1724950164.981;50;10.00;34485.00
1724950165.031;50;10.00;34485.00
1724950165.082;50;10.00;34485.00
1724950165.132;50;10.00;34485.00
1724950165.181;50;8.40;33569.33
1724950165.231;50;8.50;33629.40
1724950363.870;58;30.00;33069.46
1724950363.920;58;30.00;33069.46
1724950363.970;58;30.00;33069.46
1724950364.070;27;30.00;33979.20
1724950364.120;27;30.00;33979.20
1724950364.171;27;30.00;33979.20
1724950364.220;27;30.00;33979.20
1724950364.270;52;30.00;33241.13
1724950364.320;27;30.00;33976.13
1724950364.370;26;30.00;34004.07
1724950364.419;26;30.00;34004.07
1724950364.471;26;30.00;34004.07
1724950364.521;39;30.00;33624.13
1724950364.571;28;30.00;33955.80
1724950364.621;40;30.00;33601.60
1724950364.671;40;30.00;33601.60
1724950364.721;40;30.00;33601.60
1724950364.771;40;30.00;33601.60
1724950364.821;37;30.00;33680.80
1724950364.872;28;30.00;33953.46
1724950364.921;28;30.00;33935.07
1724950364.971;30;30.00;33895.80
1724950365.021;30;30.00;33895.80
1724950365.071;30;30.00;33895.80
1724950365.122;19;30.00;34217.60
1724950365.172;14;30.00;34353.87
1724950365.222;15;30.00;34318.40
1724950365.271;27;30.00;33979.40
1724950365.322;27;30.00;33979.40
1724950365.372;27;30.00;33979.40
1724950365.422;27;30.00;33979.40
1724950365.472;45;30.00;33452.93
1724950365.523;48;30.00;33357.80
1724950365.572;25;30.00;34026.27
1724950365.622;25;30.00;34026.27
1724950365.672;25;30.00;34026.27
1724950365.722;25;30.00;34026.27
1724950365.774;38;30.00;33652.27
1724950365.824;13;30.00;34378.00
1724950365.874;12;30.00;34425.20
1724950365.924;12;30.00;34425.20
1724950365.974;12;30.00;34425.20
1724950366.024;12;30.00;34425.20
1724950366.074;24;30.00;34053.73
1724950366.124;58;30.00;33064.54
1724950366.174;25;30.00;34032.67
1724950366.224;25;30.00;34032.67
1724950366.274;25;30.00;34032.67
1724950366.324;26;30.00;33998.93
1724950366.375;17;30.00;34262.13
1724950366.433;17;30.00;34262.13
1724950366.480;16;30.00;34310.33
1724950366.530;16;30.00;34310.33
1724950366.580;16;30.00;34310.33
1724950366.630;40;30.00;33597.46
1724950366.680;10;30.00;34485.00
1724950366.731;26;30.00;34003.60
1724950366.780;30;30.00;33898.93
1724950366.831;30;30.00;33898.93
1724950366.880;30;30.00;33898.93
1724950366.931;13;30.00;34376.73
1724950366.981;26;30.00;34017.80
1724950367.031;45;30.00;33445.54
1724950367.081;45;30.00;33445.54
1724950367.131;45;30.00;33445.54
1724950367.181;45;30.00;33445.54
1724950367.231;10;30.00;34467.87
1724950367.281;11;30.00;34428.67
1724950367.332;11;30.00;34440.67
1724950367.381;11;30.00;34440.67
1724950367.432;11;30.00;34440.67
1724950367.482;11;30.00;34440.67
1724950367.532;33;30.00;33798.73
1724950367.583;32;30.00;33826.07
1724950367.632;32;30.00;33826.07
1724950367.682;41;30.00;33555.40
1724950367.732;41;30.00;33555.40
1724950367.782;41;30.00;33555.40
1724950367.833;41;30.00;33555.40
1724950367.883;23;30.00;34085.60
1724950367.934;23;30.00;34085.60
1724950367.984;10;30.00;34485.00
1724950368.034;10;30.00;34485.00
1724950368.084;10;30.00;34485.00
1724950368.134;10;30.00;34485.00
1724950368.184;10;30.00;34485.00
1724950368.235;10;30.00;34485.00
1724950368.284;20;30.00;34190.93
1724950368.334;27;30.00;33976.73
1724950368.385;43;30.00;33511.40
1724950368.434;44;30.00;33478.60
1724950368.484;23;30.00;34088.54
1724950368.535;23;30.00;34088.54
1724950368.585;23;30.00;34088.54
1724950368.635;42;30.00;33546.93
1724950368.684;38;30.00;33665.33
1724950368.735;38;30.00;33665.33
1724950368.785;12;30.00;34421.54
1724950368.835;12;30.00;34421.54
1724950368.885;12;30.00;34421.54
1724950368.935;29;30.00;33916.80
1724950368.985;12;30.00;34406.00
1724950369.036;40;30.00;33590.33
1724950369.086;31;30.00;33851.87
1724950369.135;31;30.00;33851.87
1724950369.185;31;30.00;33851.87
1724950369.235;23;30.00;34107.27
1724950369.286;10;30.00;34483.13
1724950369.336;50;30.00;33298.27
1724950369.386;50;30.00;33298.27
1724950369.436;50;30.00;33298.27
1724950369.487;50;30.00;33298.27
1724950369.537;13;30.00;34376.27
1724950369.587;44;30.00;33468.60
1724950369.637;45;30.00;33442.00
1724950369.687;43;30.00;33515.80
1724950369.737;43;30.00;33515.80
1724950369.787;43;30.00;33515.80
1724950369.837;33;30.00;33789.54
1724950369.887;10;30.00;34485.00
1724950369.937;10;30.00;34485.00
1724950369.987;36;30.00;33705.20
1724950370.037;36;30.00;33705.20
1724950370.087;36;30.00;33705.20
1724950370.137;22;30.00;34108.33
1724950370.188;19;30.00;34205.80
1724950370.237;27;30.00;33979.80
1724950370.287;30;30.00;33882.27
1724950370.338;30;30.00;33882.27
1724950370.387;30;30.00;33882.27
1724950370.437;11;30.00;34445.67
1724950370.488;16;30.00;34307.73
1724950370.538;10;30.00;34466.54
1724950370.587;21;30.00;34145.40
1724950370.638;21;30.00;34145.40
1724950370.687;21;30.00;34145.40
1724950370.738;39;30.00;33617.13
1724950370.787;29;30.00;33909.27
1724950370.837;29;30.00;33909.27
1724950370.887;29;30.00;33909.27
1724950370.938;29;30.00;33909.27
1724950370.991;27;30.00;33963.67
1724950371.038;21;30.00;34151.54
1724950371.088;16;30.00;34300.93
1724950371.138;16;30.00;34300.93
1724950371.189;16;30.00;34300.93
1724950371.238;43;30.00;33516.33
1724950371.288;43;30.00;33507.20
1724950371.339;43;30.00;33507.20
1724950371.388;43;30.00;33507.20
1724950371.438;43;30.00;33507.20
1724950371.488;38;30.00;33642.46
1724950371.539;23;30.00;34098.60
1724950371.589;40;30.00;33607.80
1724950371.639;40;30.00;33607.80
1724950371.689;40;30.00;33607.80
1724950371.738;48;30.00;33371.67
1724950371.790;10;30.00;34485.00
1724950390.196;57;30.00;33103.07
1724950390.246;41;30.00;33573.54
1724950390.297;55;30.00;33154.60
1724950390.347;55;30.00;33154.60
1724950390.397;55;30.00;33154.60
1724950390.446;55;30.00;33154.60
1724950390.496;18;30.00;34248.07
1724950390.547;22;30.00;34129.20
1724950390.597;11;30.00;34456.13
1724950390.647;11;30.00;34456.13
1724950390.697;11;30.00;34456.13
1724950390.748;40;30.00;33592.67
1724950390.797;37;30.00;33673.60
1724950390.848;40;30.00;33606.27
1724950390.897;40;30.00;33606.27
1724950390.948;40;30.00;33606.27
1724950390.998;48;30.00;33363.54
1724950391.048;51;30.00;33285.20
1724950391.097;14;30.00;34360.20
1724950391.148;14;30.00;34360.20
1724950391.198;14;30.00;34360.20
1724950391.248;14;30.00;34360.20
1724950391.298;14;30.00;34365.27
1724950391.348;14;30.00;34365.27
1724950391.398;24;30.00;34063.27
1724950391.448;24;30.00;34063.27
1724950391.498;24;30.00;34063.27
1724950391.548;24;30.00;34063.27
1724950391.598;37;30.00;33695.60
1724950391.648;49;30.00;33345.33
1724950391.699;10;30.00;34485.00
1724950391.749;11;30.00;34450.54
1724950391.799;11;30.00;34450.54
1724950391.849;11;30.00;34450.54
1724950391.899;13;30.00;34398.54
1724950391.948;10;30.00;34485.00
1724950392.000;30;30.00;33887.27
1724950392.050;30;30.00;33887.27
1724950392.099;30;30.00;33887.27
1724950392.150;26;30.00;33995.27
1724950392.200;18;30.00;34225.13
1724950392.249;42;30.00;33552.46
1724950392.300;11;30.00;34436.80
1724950392.350;11;30.00;34436.80
1724950392.400;11;30.00;34436.80
1724950392.450;24;30.00;34059.20
1724950392.500;12;30.00;34414.67
1724950392.551;11;30.00;34436.13
1724950392.600;43;30.00;33505.93
1724950392.651;43;30.00;33505.93
1724950392.701;43;30.00;33505.93
1724950392.752;43;30.00;33505.93
1724950392.802;36;30.00;33708.54
1724950392.852;35;30.00;33734.40
1724950392.901;34;30.00;33761.73
1724950392.952;34;30.00;33761.73
1724950393.002;34;30.00;33761.73
1724950393.052;34;30.00;33761.73
1724950393.102;12;30.00;34413.80
1724950393.152;12;30.00;34413.80
1724950393.202;37;30.00;33685.60
1724950393.253;20;30.00;34167.00
1724950393.303;13;30.00;34394.54
1724950393.353;13;30.00;34394.54
1724950393.403;13;30.00;34394.54
1724950393.453;20;30.00;34175.27
1724950393.504;28;30.00;33943.46
1724950393.554;37;30.00;33686.20
1724950393.608;29;30.00;33926.87
1724950393.654;24;30.00;34076.40
1724950393.704;24;30.00;34076.40
1724950393.754;24;30.00;34076.40
1724950393.804;24;30.00;34076.40
1724950393.854;24;30.00;34076.40
1724950393.905;21;30.00;34157.67
1724950393.954;16;30.00;34284.87
1724950394.004;23;30.00;34093.60
1724950394.054;23;30.00;34093.60
1724950394.106;23;30.00;34093.60
1724950394.155;23;30.00;34093.60
1724950394.205;36;30.00;33723.46
1724950394.255;32;30.00;33832.80
1724950394.306;43;30.00;33510.87
1724950394.356;43;30.00;33510.87
1724950394.405;43;30.00;33510.87
1724950394.455;13;30.00;34383.40
1724950394.505;35;30.00;33749.54
1724950394.555;35;30.00;33749.54
1724950394.605;35;30.00;33749.54
1724950394.655;35;30.00;33749.54
1724950394.707;36;30.00;33725.46
1724950394.757;51;30.00;33282.07
1724950394.806;11;30.00;34431.60
1724950394.856;18;30.00;34245.00
1724950394.907;18;30.00;34245.00
1724950394.957;18;30.00;34245.00
1724950395.007;18;30.00;34245.00
1724950395.057;29;30.00;33926.27
1724950395.108;17;30.00;34255.27
1724950395.157;26;30.00;33995.87
1724950395.207;16;30.00;34298.33
1724950395.258;16;30.00;34298.33
1724950395.308;16;30.00;34298.33
1724950395.358;20;30.00;34188.60
1724950395.408;28;30.00;33938.87
1724950395.457;28;30.00;33938.87
1724950395.508;39;30.00;33626.54
1724950395.558;33;30.00;33790.60
1724950395.608;33;30.00;33790.60
1724950395.658;33;30.00;33790.60
1724950395.707;33;30.00;33790.60
1724950395.758;32;30.00;33838.60
1724950395.808;23;30.00;34092.73
1724950395.857;34;30.00;33779.46
1724950395.908;32;30.00;33837.67
1724950395.958;32;30.00;33837.67
1724950396.008;32;30.00;33837.67
1724950396.066;32;30.00;33837.67
1724950396.113;20;30.00;34184.46
1724950396.163;12;30.00;34417.00
1724950396.213;39;30.00;33638.46
1724950396.263;39;30.00;33638.46
1724950396.313;39;30.00;33638.46
1724950396.363;35;30.00;33752.07
1724950396.413;48;30.00;33360.20
1724950396.464;27;30.00;33974.93
1724950396.513;31;30.00;33854.67
1724950396.564;31;30.00;33854.67
1724950396.614;31;30.00;33854.67
1724950396.664;40;30.00;33608.54
1724950396.714;22;30.00;34117.20
1724950396.764;18;30.00;34250.60
1724950396.814;18;30.00;34250.60
1724950396.864;18;30.00;34250.60
1724950396.914;18;30.00;34250.60
1724950396.964;17;30.00;34281.87
1724950397.014;16;30.00;34309.60
1724950397.064;40;30.00;33608.27
1724950397.114;40;30.00;33608.27
1724950397.165;40;30.00;33608.27
1724950397.214;40;30.00;33608.27
1724950397.264;36;30.00;33716.33
1724950397.315;31;30.00;33871.80
1724950397.365;24;30.00;34065.73
1724950397.414;38;30.00;33647.13
1724950397.465;38;30.00;33647.13
1724950397.515;38;30.00;33647.13
1724950397.566;38;30.00;33647.13
1724950397.616;13;30.00;34385.73
1724950397.665;19;30.00;34196.54
1724950397.716;17;30.00;34262.54
1724950397.765;34;30.00;33785.87
1724950397.817;39;30.00;33638.13
1724950397.866;39;30.00;33638.13
1724950397.916;39;30.00;33638.13
1724950397.967;34;30.00;33783.07
1724950398.017;12;30.00;34404.80
1724950398.067;19;30.00;34211.00
1724950398.117;12;30.00;34400.07
1724950398.166;11;30.00;34442.46
1724950398.216;11;30.00;34442.46
1724950398.267;11;30.00;34442.46
1724950398.317;11;30.00;34442.46
1724950398.367;41;30.00;33567.27
1724950398.417;37;30.00;33671.27
1724950398.467;38;30.00;33649.80
1724950398.517;20;30.00;34185.00
1724950416.681;57;30.00;33107.40
1724950416.733;54;30.00;33196.60
1724950416.833;54;30.00;33197.73
1724950416.883;54;30.00;33197.73
1724950416.932;54;30.00;33197.73
1724950416.983;53;30.00;33207.33
1724950417.033;37;30.00;33693.93
1724950417.083;37;30.00;33693.93
1724950417.134;37;30.00;33693.93
1724950417.185;37;30.00;33693.93
1724950417.235;13;30.00;34383.00
1724950417.285;19;30.00;34207.60
1724950417.334;33;30.00;33812.60
1724950417.384;33;30.00;33812.60
1724950417.436;33;30.00;33812.60
1724950417.486;11;30.00;34439.20
1724950417.535;53;30.00;33206.93
1724950417.585;22;30.00;34112.00
1724950417.636;32;30.00;33826.67
1724950417.686;32;30.00;33826.67
1724950417.737;32;30.00;33826.67
1724950417.786;48;30.00;33359.27
1724950417.837;25;30.00;34046.54
1724950417.888;25;30.00;34046.54
1724950417.939;49;30.00;33327.07
1724950417.989;49;30.00;33327.07
1724950418.038;49;30.00;33327.07
1724950418.089;49;30.00;33327.07
1724950418.139;13;30.00;34393.07
1724950418.189;20;30.00;34180.27
1724950418.239;14;30.00;34347.80
1724950418.289;18;30.00;34246.80
1724950418.339;17;30.00;34267.40
1724950418.389;17;30.00;34267.40
1724950418.439;17;30.00;34267.40
1724950418.489;17;30.00;34267.40
1724950418.539;40;30.00;33603.27
1724950418.589;16;30.00;34309.60
1724950418.647;14;30.00;34361.67
1724950418.694;11;30.00;34440.20
1724950418.744;13;30.00;34386.27
1724950418.795;13;30.00;34386.27
1724950418.845;13;30.00;34386.27
1724950418.895;33;30.00;33789.54
1724950418.945;27;30.00;33973.00
1724950418.996;37;30.00;33696.27
1724950419.045;37;30.00;33696.27
1724950419.095;37;30.00;33696.27
1724950419.145;37;30.00;33696.27
1724950419.196;10;30.00;34481.60
1724950419.245;11;30.00;34428.13
1724950419.296;17;30.00;34255.46
1724950419.345;17;30.00;34255.46
1724950419.396;17;30.00;34255.46
1724950419.445;17;30.00;34255.46
1724950419.496;25;30.00;34040.80
1724950419.546;14;30.00;34343.67
1724950419.597;13;30.00;34371.87
1724950419.647;13;30.00;34371.87
1724950419.696;13;30.00;34371.87
1724950419.747;13;30.00;34371.87
1724950419.798;30;30.00;33898.46
1724950419.852;17;30.00;34253.27
1724950419.898;14;30.00;34350.40
1724950419.949;24;30.00;34075.00
1724950419.999;24;30.00;34075.00
1724950420.048;24;30.00;34075.00
1724950420.099;24;30.00;34057.80
1724950420.150;12;30.00;34419.87
1724950420.200;13;30.00;34370.54
1724950420.249;13;30.00;34390.00
1724950420.300;13;30.00;34390.00
1724950420.351;13;30.00;34390.00
1724950420.400;10;30.00;34481.27
1724950420.450;16;30.00;34283.46
1724950420.500;20;30.00;34181.73
1724950420.552;20;30.00;34181.73
1724950420.602;20;30.00;34181.73
1724950420.652;20;30.00;34181.73
1724950420.702;20;30.00;34188.40
1724950420.751;16;30.00;34282.13
1724950420.802;16;30.00;34292.87
1724950420.851;33;30.00;33795.93
1724950420.901;33;30.00;33795.93
1724950420.953;33;30.00;33795.93
1724950421.002;13;30.00;34386.33
1724950421.053;46;30.00;33431.27
1724950421.102;41;30.00;33559.73
1724950421.152;11;30.00;34430.80
1724950421.203;11;30.00;34430.80
1724950421.253;11;30.00;34430.80
1724950421.302;33;30.00;33789.60
1724950421.352;18;30.00;34245.20
1724950421.403;52;30.00;33242.73
1724950421.453;52;30.00;33242.73
1724950421.502;52;30.00;33242.73
1724950421.553;52;30.00;33242.73
1724950421.603;23;30.00;34098.40
1724950421.653;44;30.00;33487.40
1724950421.703;34;30.00;33779.07
1724950421.754;27;30.00;33980.67
1724950421.804;27;30.00;33980.67
1724950421.854;27;30.00;33980.67
1724950421.904;24;30.00;34071.33
1724950421.954;23;30.00;34090.80
1724950422.004;25;30.00;34037.07
1724950422.054;25;30.00;34037.07
1724950422.105;25;30.00;34037.07
1724950422.155;25;30.00;34037.07
1724950422.204;46;30.00;33415.80
1724950422.255;12;30.00;34410.46
1724950422.305;12;30.00;34410.46
1724950422.355;44;30.00;33470.07
1724950422.405;44;30.00;33470.07
1724950422.454;44;30.00;33470.07
1724950422.504;51;30.00;33291.27
1724950422.555;50;30.00;33318.73
1724950422.604;51;30.00;33271.07
1724950422.654;51;30.00;33271.07
1724950422.704;51;30.00;33271.07
1724950422.754;51;30.00;33271.07
1724950422.804;19;30.00;34204.46
1724950422.854;25;30.00;34035.67
1724950422.904;27;30.00;33975.54
1724950422.955;10;30.00;34485.00
1724950423.004;10;30.00;34485.00
1724950423.055;10;30.00;34485.00
1724950423.104;10;30.00;34485.00
1724950423.154;13;30.00;34375.60
1724950423.204;10;30.00;34460.67
1724950423.254;22;30.00;34114.87
1724950423.305;22;30.00;34114.87
1724950423.354;22;30.00;34114.87
1724950423.404;22;30.00;34114.87
1724950423.454;30;30.00;33894.40
1724950423.505;32;30.00;33834.00
1724950423.554;12;30.00;34423.87
1724950423.604;12;30.00;34423.87
1724950423.655;12;30.00;34423.87
1724950423.705;12;30.00;34423.87
1724950423.755;28;30.00;33946.20
1724950423.804;16;30.00;34301.87
1724950423.854;50;30.00;33311.60
1724950423.905;50;30.00;33311.60
1724950423.955;50;30.00;33311.60
1724950424.005;50;30.00;33311.60
1724950424.054;26;30.00;34005.54
1724950424.105;15;30.00;34332.07
1724950424.155;37;30.00;33675.27
1724950424.205;34;30.00;33785.67
1724950424.255;34;30.00;33785.67
1724950424.305;34;30.00;33785.67
1724950424.355;34;30.00;33785.67
1724950424.404;30;30.00;33883.67
1724950424.454;10;30.00;34485.00
1724950424.504;10;30.00;34485.00
1724950424.555;10;30.00;34485.00
1724950424.605;10;30.00;34485.00
1724950424.655;28;30.00;33936.27
1724950424.705;21;30.00;34148.27
1724950424.755;41;30.00;33559.67
1724950840.513;28;30.00;34572.20
1724950840.763;28;30.00;34851.13
1724950840.813;28;30.00;34851.13
1724950840.863;28;30.00;34851.13
1724950840.913;28;30.00;34851.13
1724950841.014;22;30.00;36806.13
1724950841.064;22;30.00;36806.13
1724950841.114;22;30.00;36806.13
1724950841.165;22;30.00;36806.13
1724950841.314;27;30.00;35096.60
1724950841.364;27;30.00;35096.60
1724950841.414;27;30.00;35096.60
1724950841.464;27;30.00;35096.60
1724950841.514;30;30.00;34142.20
1724950841.565;28;30.00;34578.80
1724950841.615;23;30.00;36353.80
1724950841.666;23;30.00;36353.80
1724950841.715;23;30.00;36353.80
1724950841.765;23;30.00;36353.80
1724950841.815;27;30.00;35071.40
1724950841.867;28;30.00;34827.46
1724950841.917;28;30.00;34816.27
1724950841.967;28;30.00;34816.27
1724950842.017;28;30.00;34816.27
1724950842.067;25;30.00;35827.33
1724950842.117;28;30.00;34544.73
1724950842.167;29;30.00;34341.60
1724950842.217;29;30.00;34341.60
1724950842.267;29;30.00;34341.60
1724950842.317;21;30.00;37049.33
1724950842.368;26;30.00;35492.80
1724950842.418;26;30.00;35426.13
1724950842.468;26;30.00;35426.13
1724950842.518;26;30.00;35426.13
1724950842.568;26;30.00;35426.13
1724950842.617;28;30.00;34689.80
1724950842.667;27;30.00;34972.07
1724950842.718;26;30.00;35308.40
1724950842.768;26;30.00;35308.40
1724950842.818;26;30.00;35308.40
1724950842.868;26;30.00;35308.40
1724950842.968;24;30.00;36119.40
1724950843.018;29;30.00;34161.13
1724950843.069;29;30.00;34161.13
1724950843.119;29;30.00;34161.13
1724950843.168;29;30.00;34161.13
1724950843.218;28;30.00;34586.87
1724950843.269;24;30.00;35999.07
1724950843.318;23;30.00;36523.46
1724950843.368;23;30.00;36523.46
1724950843.418;23;30.00;36523.46
1724950843.468;23;30.00;36523.46
1724950843.518;22;30.00;36630.46
1724950843.569;27;30.00;34940.73
1724950843.619;17;30.00;38416.40
1724950843.669;17;30.00;38416.40
1724950843.719;17;30.00;38416.40
1724950843.769;17;30.00;38416.40
1724950843.818;22;30.00;36672.54
1724950843.869;27;30.00;34932.54
1724950843.919;27;30.00;34931.27
1724950843.969;27;30.00;34931.27
1724950844.018;27;30.00;34931.27
1724950844.070;26;30.00;35468.07
1724950844.120;28;30.00;34761.33
1724950844.420;22;30.00;36922.33
1724950844.470;22;30.00;36922.33
1724950844.520;29;30.00;34347.13
1724950844.570;29;30.00;34347.13
1724950844.620;29;30.00;34347.13
1724950844.670;28;30.00;34758.67
1724950844.720;24;30.00;36026.33
1724950844.771;27;30.00;34968.07
1724950844.820;26;30.00;35453.93
1724950844.871;26;30.00;35453.93
1724950844.921;26;30.00;35453.93
1724950845.020;26;30.00;35485.60
1724950845.071;19;30.00;37643.87
1724950845.121;19;30.00;37643.87
1724950845.171;19;30.00;37643.87
1724950845.222;26;30.00;35510.33
1724950845.273;20;30.00;37477.60
1724950845.323;15;30.00;39105.20
1724950845.373;15;30.00;39105.20
1724950845.422;15;30.00;39105.20
1724950845.472;15;30.00;39105.20
1724950845.523;24;30.00;35967.46
1724950845.573;24;30.00;35967.46
1724950845.623;29;30.00;34371.33
1724950845.672;29;30.00;34371.33
1724950845.723;29;30.00;34371.33
1724950845.773;26;30.00;35394.40
1724950845.873;22;30.00;36812.07
1724950845.922;22;30.00;36812.07
1724950845.973;22;30.00;36812.07
1724950846.023;22;30.00;36812.07
1724950846.073;21;30.00;37265.87
1724950846.123;29;30.00;34476.33
1724950846.173;27;30.00;34905.07
1724950846.223;27;30.00;34905.07
1724950846.273;27;30.00;34905.07
1724950846.323;23;30.00;36357.60
1724950846.424;28;30.00;34679.87
1724950846.474;28;30.00;34679.87
1724950846.524;28;30.00;34679.87
1724950846.574;28;30.00;34679.87
1724950846.924;27;30.00;34935.73
1724950847.024;29;30.00;34218.54
1724950847.075;29;30.00;34218.54
1724950847.125;29;30.00;34218.54
1724950847.175;29;30.00;34207.54
1724950847.275;27;30.00;35118.54
1724950847.325;27;30.00;35118.54
1724950847.375;27;30.00;35118.54
1724950847.425;27;30.00;35118.54
1724950847.475;28;30.00;34606.00
1724950847.525;24;30.00;36074.40
1724950847.576;17;30.00;38416.07
1724950865.362;25;30.00;35607.33
1724950865.412;28;30.00;34696.80
1724950865.462;28;30.00;34696.80
1724950865.512;28;30.00;34696.80
1724950865.562;28;30.00;34696.80
1724950865.612;29;30.00;34404.54
1724950865.662;27;30.00;34916.46
1724950865.712;27;30.00;34959.13
1724950865.762;27;30.00;34959.13
1724950865.811;27;30.00;34959.13
1724950865.863;27;30.00;34959.13
1724950865.912;24;30.00;36036.00
1724950865.964;23;30.00;36473.20
1724950866.014;23;30.00;36473.20
1724950866.064;23;30.00;36473.20
1724950866.123;23;30.00;36473.20
1724950866.165;23;30.00;36473.20
1724950866.215;24;30.00;36183.54
1724950866.264;29;30.00;34331.40
1724950866.314;27;30.00;35041.93
1724950866.364;27;30.00;35041.93
1724950866.415;27;30.00;35041.93
1724950866.465;27;30.00;35041.93
1724950866.514;26;30.00;35346.46
1724950866.564;24;30.00;36083.67
1724950866.615;27;30.00;34857.73
1724950866.665;27;30.00;34857.73
1724950866.716;27;30.00;34857.73
1724950866.765;27;30.00;34857.73
1724950866.816;22;30.00;36772.40
1724950866.865;17;30.00;38512.93
1724950866.916;24;30.00;36193.87
1724950866.966;25;30.00;35892.67
1724950867.016;25;30.00;35892.67
1724950867.065;25;30.00;35892.67
1724950867.116;28;30.00;34834.54
1724950867.165;27;30.00;34946.67
1724950867.215;26;30.00;35406.80
1724950867.466;28;30.00;34795.20
1724950867.516;26;30.00;35373.60
1724950867.565;29;30.00;34317.13
1724950867.615;29;30.00;34317.13
1724950867.665;29;30.00;34317.13
1724950867.715;21;30.00;37065.46
1724950867.765;29;30.00;34321.60
1724950867.816;21;30.00;37193.33
1724950867.866;25;30.00;35553.87
1724950867.916;25;30.00;35553.87
1724950867.966;25;30.00;35553.87
1724950868.015;25;30.00;35553.87
1724950868.066;21;30.00;37189.33
1724950868.116;21;30.00;37189.33
1724950868.166;22;30.00;36633.60
1724950868.267;25;30.00;35732.87
1724950868.320;25;30.00;35732.87
1724950868.367;25;30.00;35732.87
1724950868.417;25;30.00;35732.87
1724950868.466;25;30.00;35732.87
1724950868.567;27;30.00;35037.13
1724950868.616;26;30.00;35425.27
1724950868.666;28;30.00;34831.33
1724950868.717;28;30.00;34831.33
1724950868.767;28;30.00;34831.33
1724950868.816;28;30.00;34650.00
1724950868.868;22;30.00;36792.54
1724950868.918;19;30.00;37786.60
1724950868.968;27;30.00;35121.13
1724950869.017;27;30.00;35121.13
1724950869.068;27;30.00;35121.13
1724950869.118;29;30.00;34220.13
1724950869.168;29;30.00;34290.80
1724950869.219;28;30.00;34686.13
1724950869.268;28;30.00;34686.13
1724950869.318;28;30.00;34686.13
1724950869.368;28;30.00;34657.60
1724950869.418;28;30.00;34633.20
1724950869.468;29;30.00;34412.54
1724950869.769;28;30.00;34842.07
1724950870.019;28;30.00;34528.73
1724950870.270;27;30.00;34862.13
1724950871.573;29;30.00;34310.40
1724950871.823;27;30.00;35189.27
1724950872.174;29;30.00;34255.67
1724950872.425;23;30.00;36295.20
1724950872.975;26;30.00;35408.80
1724950873.075;29;30.00;34340.80
1724950873.125;29;30.00;34340.80
1724950873.175;29;30.00;34340.80
1724950873.226;29;30.00;34340.80
1724950873.376;26;30.00;35244.54
1724950873.427;26;30.00;35244.54
1724950873.478;26;30.00;35244.54
1724950873.527;26;30.00;35244.54
1724950873.579;28;30.00;34662.93
1724950873.679;26;30.00;35325.46
1724950873.728;29;30.00;34214.80
1724950891.200;29;30.00;34346.54
1724950891.250;27;30.00;35176.67
1724950891.301;28;30.00;34735.07
1724950891.351;28;30.00;34735.07
1724950891.402;28;30.00;34735.07
1724950891.451;25;30.00;35603.20
1724950891.502;22;30.00;36838.67
1724950891.552;23;30.00;36392.46
1724950891.602;23;30.00;36392.46
1724950891.652;23;30.00;36392.46
1724950891.701;23;30.00;36392.46
1724950891.751;28;30.00;34785.80
1724950892.003;22;30.00;36740.73
1724950892.054;24;30.00;35997.73
1724950892.104;28;30.00;34564.67
1724950892.154;28;30.00;34564.67
1724950892.206;28;30.00;34564.67
1724950892.254;28;30.00;34564.67
1724950892.305;24;30.00;36094.73
1724950892.354;23;30.00;36400.07
1724950892.705;29;30.00;34440.54
1724950892.754;29;30.00;34440.54
1724950892.804;29;30.00;34440.54
1724950892.855;29;30.00;34440.54
1724950892.954;27;30.00;34913.40
1724950893.004;21;30.00;37115.40
1724950893.055;28;30.00;34834.87
1724950893.104;28;30.00;34834.87
1724950893.154;28;30.00;34834.87
1724950893.205;28;30.00;34834.87
1724950893.254;22;30.00;36792.80
1724950893.305;26;30.00;35338.73
1724950893.354;27;30.00;35005.93
1724950893.404;23;30.00;36377.67
1724950893.454;21;30.00;36967.00
1724950893.504;21;30.00;36967.00
1724950893.554;21;30.00;36967.00
1724950893.604;26;30.00;35532.80
1724950893.655;24;30.00;36053.87
1724950893.705;27;30.00;34942.93
1724950893.755;24;30.00;36181.46
1724950893.806;24;30.00;35978.80
1724950893.855;24;30.00;35978.80
1724950893.905;24;30.00;35978.80
1724950893.955;25;30.00;35594.60
1724950894.006;29;30.00;34346.93
1724950894.055;26;30.00;35364.13
1724950894.105;26;30.00;35374.60
1724950894.156;26;30.00;35374.60
1724950894.206;26;30.00;35374.60
1724950894.255;23;30.00;36406.00
1724950894.356;28;30.00;34634.00
1724950894.406;28;30.00;34518.54
1724950894.455;28;30.00;34518.54
1724950894.507;28;30.00;34518.54
1724950894.556;28;30.00;34518.54
1724950894.606;28;30.00;34771.00
1724950894.706;24;30.00;35935.73
1724950894.756;24;30.00;35935.73
1724950894.806;24;30.00;35935.73
1724950894.855;24;30.00;36174.67
1724950894.906;29;30.00;34219.87
1724950895.156;25;30.00;35894.80
1724950895.206;26;30.00;35220.46
1724950895.256;29;30.00;34320.87
1724950895.307;29;30.00;34320.87
1724950895.357;29;30.00;34320.87
1724950895.407;29;30.00;34320.87
1724950895.457;27;30.00;35027.27
1724950895.507;18;30.00;38182.40
1724950895.557;22;30.00;36805.60
1724950895.608;28;30.00;34627.67
1724950895.658;28;30.00;34627.67
1724950895.708;28;30.00;34627.67
1724950895.758;21;30.00;37015.33
1724950895.808;22;30.00;36928.40
1724950895.857;21;30.00;37010.93
1724950895.908;26;30.00;35220.40
1724950895.957;26;30.00;35220.40
1724950896.007;26;30.00;35220.40
1724950896.058;25;30.00;35709.80
1724950896.108;19;30.00;37797.33
1724950896.158;19;30.00;37797.33
1724950896.208;19;30.00;37797.33
1724950896.258;19;30.00;37797.33
1724950896.308;18;30.00;38295.33
1724950896.407;21;30.00;37024.13
1724950896.459;21;30.00;37024.13
1724950896.509;21;30.00;37024.13
1724950896.559;21;30.00;37024.13
1724950896.609;28;30.00;34561.07
1724950896.659;28;30.00;34561.07
1724950896.709;27;30.00;35115.73
1724950896.760;27;30.00;35115.73
1724950896.811;27;30.00;35115.73
1724950896.861;27;30.00;35115.73
1724950896.912;28;30.00;34604.60
1724950896.961;28;30.00;34732.40
1724950897.011;23;30.00;36473.46
1724950897.062;25;30.00;35734.20
1724950897.111;25;30.00;35734.20
1724950897.161;25;30.00;35734.20
1724950897.212;25;30.00;35734.20
1724950897.262;24;30.00;36214.13
1724950897.312;23;30.00;36366.60
1724950897.362;24;30.00;36027.07
1724950897.413;19;30.00;37770.13
1724950897.462;19;30.00;37770.13
1724950897.513;19;30.00;37770.13
1724950897.564;21;30.00;37176.54
1724950897.614;29;30.00;34446.33
1724950897.715;30;30.00;34149.33
1724950897.765;30;30.00;34149.33
1724950897.814;30;30.00;34149.33
1724950897.864;30;30.00;34149.33
1724950897.965;26;30.00;35265.60
1724950898.014;24;30.00;36105.33
1724950898.065;24;30.00;36105.33
1724950898.115;28;30.00;34561.80
1724950898.165;28;30.00;34561.80
1724950898.215;28;30.00;34561.80
1724950898.265;28;30.00;34676.33
1724950898.315;21;30.00;37061.46
1724950898.365;22;30.00;36797.46
1724950898.415;28;30.00;34721.87
1724950898.465;28;30.00;34721.87
1724950898.514;28;30.00;34721.87
1724950898.564;28;30.00;34721.87
1724950898.615;20;30.00;37393.33
1724950898.665;27;30.00;35014.20
1724950898.916;28;30.00;34509.13
1724950898.966;29;30.00;34353.46
1724951144.904;200;7.74;33189.93
1724951145.155;200;7.49;33049.00
1724951145.205;200;7.72;33177.87
1724951145.506;200;9.98;34476.80
1724951145.556;200;8.12;33410.20
1724951145.606;200;8.12;33410.20
1724951145.656;200;8.12;33410.20
1724951145.706;200;8.12;33410.20
1724951145.756;200;7.86;33262.93
1724951145.806;200;9.13;33986.60
1724951145.856;200;9.91;34436.00
1724951145.906;200;9.91;34436.00
1724951145.956;200;9.91;34436.00
1724951146.005;200;9.91;34436.00
1724951146.056;200;8.92;33866.93
1724951146.106;200;9.60;34257.54
1724951146.156;200;9.80;34368.67
1724951146.205;200;9.80;34368.67
1724951146.256;200;9.80;34368.67
1724951146.307;200;9.80;34368.67
1724951146.356;200;9.82;34382.00
1724951146.407;200;9.89;34425.27
1724951146.457;200;9.89;34425.27
1724951146.508;200;9.89;34425.27
1724951146.558;200;9.89;34425.27
1724951146.608;200;9.89;34425.27
1724951146.658;200;10.00;34485.00
1724951146.708;200;10.00;34485.00
1724951146.758;200;8.26;33490.67
1724951146.808;200;8.26;33490.67
1724951146.858;200;8.26;33490.67
1724951146.908;200;8.26;33490.67
1724951146.959;200;8.38;33555.60
1724951147.009;200;9.59;34250.33
1724951147.059;200;10.00;34485.00
1724951147.109;200;10.00;34485.00
1724951147.160;200;10.00;34485.00
1724951147.209;200;10.00;34485.00
1724951147.261;200;10.00;34485.00
1724951147.310;200;9.69;34306.33
1724951147.361;200;9.35;34115.93
1724951147.412;200;9.35;34115.93
1724951147.461;200;9.35;34115.93
1724951147.511;200;9.35;34115.93
1724951147.562;200;10.00;34485.00
1724951147.612;200;9.98;34475.07
1724951147.663;200;8.94;33879.67
1724951147.713;200;9.24;34052.73
1724951147.764;200;9.24;34052.73
1724951147.814;200;9.24;34052.73
1724951147.864;200;9.24;34052.73
1724951147.914;200;9.24;34052.73
1724951147.964;200;10.00;34485.00
1724951148.014;200;8.87;33839.00
1724951148.064;200;10.00;34485.00
1724951148.114;200;9.42;34155.27
1724951148.164;200;9.39;34135.67
1724951148.214;200;9.39;34135.67
1724951148.264;200;9.39;34135.67
1724951148.315;200;9.39;34135.67
1724951148.365;200;9.66;34289.67
1724951148.416;200;10.00;34485.00
1724951148.465;200;10.00;34485.00
1724951148.516;200;9.39;34135.33
1724951148.566;200;9.39;34135.33
1724951148.616;200;9.39;34135.33
1724951148.665;200;9.39;34135.33
1724951148.716;200;8.80;33799.40
1724951148.766;200;8.75;33772.46
1724951148.816;200;9.98;34473.93
1724951148.865;200;9.98;34473.93
1724951148.916;200;9.98;34473.93
1724951148.966;200;9.98;34473.93
1724951149.015;200;9.59;34248.33
1724951149.066;200;8.51;33632.40
1724951149.115;200;10.00;34485.00
1724951149.166;200;10.00;34485.00
1724951149.215;200;10.00;34485.00
1724951149.265;200;10.00;34485.00
1724951149.315;200;10.00;34485.00
1724951149.366;200;10.00;34485.00
1724951149.416;200;8.50;33628.27
1724951149.468;200;10.00;34485.00
1724951149.517;200;10.00;34485.00
1724951149.567;200;10.00;34485.00
1724951149.617;200;10.00;34485.00
1724951149.667;200;8.97;33895.46
1724951149.717;200;9.20;34027.80
1724951149.767;200;9.20;34027.80
1724951149.817;200;9.20;34027.80
1724951149.867;200;9.90;34429.20
1724951149.917;200;9.06;33945.60
1724951149.967;200;10.00;34485.00
1724951150.017;200;10.00;34485.00
1724951150.067;200;10.00;34485.00
1724951150.117;200;9.91;34436.93
1724951150.167;200;10.00;34485.00
1724951150.217;200;8.85;33829.20
1724951150.267;200;8.85;33829.20
1724951150.317;200;8.85;33829.20
1724951150.368;200;9.92;34439.60
1724951150.418;200;10.00;34485.00
1724951150.471;200;9.79;34363.60
1724951150.518;200;9.79;34363.60
1724951150.568;200;9.79;34363.60
1724951150.618;200;9.79;34363.60
1724951150.668;200;8.48;33615.27
1724951150.717;200;9.86;34406.93
1724951150.769;200;10.00;34485.00
1724951150.819;200;10.00;34485.00
1724951150.869;200;10.00;34485.00
1724951150.919;200;10.00;34485.00
1724951150.970;200;9.00;33914.40
1724951151.020;200;9.69;34310.13
1724951151.070;200;9.44;34162.80
1724951151.120;200;9.44;34162.80
1724951151.172;200;9.44;34162.80
1724951151.222;200;9.44;34162.80
1724951151.272;200;9.45;34168.54
1724951151.321;200;10.00;34485.00
1724951151.372;200;10.00;34485.00
1724951151.422;200;10.00;34485.00
1724951151.472;200;10.00;34485.00
1724951151.522;200;10.00;34485.00
1724951151.573;200;9.11;33974.27
1724951151.622;200;9.11;33974.27
1724951151.671;200;9.29;34082.00
1724951151.722;200;9.65;34286.33
1724951151.771;200;9.65;34286.33
1724951151.822;200;9.65;34286.33
1724951151.872;200;10.00;34485.00
1724951151.922;200;8.39;33561.93
1724951151.972;200;10.00;34485.00
1724951152.022;200;10.00;34485.00
1724951152.072;200;10.00;34485.00
1724951152.122;200;10.00;34485.00
1724951152.173;200;9.76;34348.87
1724951152.222;200;10.00;34485.00
1724951152.273;200;9.02;33926.73
1724951152.322;200;9.02;33926.73
1724951152.373;200;9.02;33926.73
1724951152.424;200;9.02;33926.73
1724951152.474;200;10.00;34485.00
1724951152.524;200;10.00;34485.00
1724951152.574;200;8.47;33609.54
1724951152.624;200;8.47;33609.54
1724951152.675;200;8.47;33609.54
1724951152.725;200;8.47;33609.54
1724951152.775;200;10.00;34485.00
1724951152.825;200;10.00;34485.00
1724951152.875;200;9.77;34356.87
1724951170.836;200;7.85;33256.00
1724951170.886;200;7.85;33256.00
1724951170.937;200;7.85;33256.00
1724951170.987;200;7.85;33256.00
1724951171.037;200;9.82;34381.60
1724951171.087;200;9.93;34444.93
1724951171.136;200;9.93;34444.93
1724951171.187;200;9.93;34444.93
1724951171.238;200;9.93;34444.93
1724951171.288;200;9.01;33920.20
1724951171.337;200;10.00;34485.00
1724951171.388;200;10.00;34485.00
1724951171.438;200;9.13;33989.87
1724951171.488;200;9.13;33989.87
1724951171.537;200;9.13;33989.87
1724951171.588;200;9.13;33989.87
1724951171.638;200;9.13;33989.87
1724951171.688;200;8.13;33412.60
1724951171.738;200;9.91;34436.40
1724951171.788;200;9.95;34455.40
1724951171.838;200;9.99;34477.46
1724951171.888;200;9.99;34477.46
1724951171.937;200;9.99;34477.46
1724951171.988;200;9.99;34477.46
1724951172.038;200;8.76;33773.46
1724951172.088;200;8.54;33651.60
1724951172.138;200;10.00;34485.00
1724951172.188;200;10.00;34485.00
1724951172.238;200;10.00;34485.00
1724951172.287;200;10.00;34485.00
1724951172.338;200;10.00;34485.00
1724951172.388;200;8.56;33660.93
1724951172.438;200;8.30;33509.73
1724951172.488;200;8.78;33785.54
1724951172.538;200;9.20;34025.40
1724951172.588;200;8.90;33854.67
1724951172.639;200;8.90;33854.67
1724951172.688;200;8.90;33854.67
1724951172.739;200;8.90;33854.67
1724951172.789;200;8.20;33454.60
1724951172.839;200;10.00;34485.00
1724951172.890;200;10.00;34485.00
1724951172.940;200;9.79;34363.54
1724951172.990;200;9.79;34363.54
1724951173.041;200;9.79;34363.54
1724951173.090;200;9.79;34363.54
1724951173.142;200;9.22;34040.13
1724951173.192;200;8.86;33830.80
1724951173.242;200;10.00;34485.00
1724951173.292;200;10.00;34485.00
1724951173.342;200;10.00;34485.00
1724951173.392;200;10.00;34485.00
1724951173.442;200;10.00;34485.00
1724951173.493;200;9.52;34211.87
1724951173.542;200;8.31;33519.46
1724951173.592;200;8.29;33505.13
1724951173.642;200;8.21;33459.60
1724951173.692;200;8.21;33459.60
1724951173.743;200;8.21;33459.60
1724951173.793;200;8.21;33459.60
1724951173.842;200;8.53;33646.93
1724951173.893;200;8.03;33356.46
1724951173.943;200;9.66;34291.80
1724951173.993;200;9.66;34291.80
1724951174.043;200;9.66;34291.80
1724951174.094;200;9.66;34291.80
1724951174.144;200;9.53;34214.20
1724951174.194;200;10.00;34485.00
1724951174.245;200;8.31;33516.07
1724951174.294;200;8.31;33516.07
1724951174.345;200;8.31;33516.07
1724951174.395;200;8.31;33516.07
1724951174.445;200;10.00;34485.00
1724951174.495;200;10.00;34485.00
1724951174.545;200;10.00;34485.00
1724951174.595;200;10.00;34485.00
1724951174.645;200;10.00;34485.00
1724951174.695;200;10.00;34485.00
1724951174.745;200;10.00;34485.00
1724951174.795;200;8.84;33820.27
1724951174.845;200;8.70;33743.87
1724951174.895;200;9.24;34048.27
1724951174.944;200;9.46;34179.40
1724951174.995;200;9.46;34179.40
1724951175.045;200;9.46;34179.40
1724951175.094;200;9.66;34290.33
1724951175.145;200;8.34;33537.54
1724951175.195;200;8.46;33602.80
1724951175.245;200;9.98;34476.93
1724951175.296;200;9.98;34476.93
1724951175.345;200;9.98;34476.93
1724951175.395;200;9.46;34177.80
1724951175.447;200;10.00;34485.00
1724951175.497;200;10.00;34485.00
1724951175.546;200;9.74;34339.80
1724951175.597;200;9.74;34339.80
1724951175.646;200;9.74;34339.80
1724951175.697;200;9.27;34068.87
1724951175.747;200;10.00;34485.00
1724951175.796;200;9.82;34381.20
1724951175.846;200;9.40;34142.00
1724951175.898;200;9.40;34142.00
1724951175.947;200;9.40;34142.00
1724951175.998;200;8.21;33462.60
1724951176.047;200;10.00;34485.00
1724951176.099;200;10.00;34485.00
1724951176.149;200;9.89;34420.40
1724951176.199;200;9.89;34420.40
1724951176.249;200;9.89;34420.40
1724951176.300;200;9.89;34420.40
1724951176.350;200;8.43;33587.00
1724951176.400;200;8.77;33780.27
1724951176.450;200;10.00;34485.00
1724951176.500;200;10.00;34485.00
1724951176.551;200;10.00;34485.00
1724951176.601;200;10.00;34485.00
1724951176.652;200;9.54;34221.07
1724951176.702;200;9.47;34184.13
1724951176.751;200;8.64;33707.13
1724951176.802;200;8.64;33707.13
1724951176.852;200;8.64;33707.13
1724951176.902;200;8.64;33707.13
1724951176.952;200;9.93;34447.93
1724951177.002;200;9.66;34292.73
1724951177.052;200;9.47;34182.46
1724951177.102;200;9.47;34182.46
1724951177.152;200;9.47;34182.46
1724951177.204;200;9.44;34165.07
1724951177.254;200;10.00;34485.00
1724951177.304;200;10.00;34485.00
1724951177.354;200;10.00;34485.00
1724951177.404;200;10.00;34485.00
1724951177.454;200;10.00;34485.00
1724951177.505;200;9.60;34259.40
1724951177.554;200;8.44;33590.27
1724951177.604;200;8.44;33590.27
1724951177.654;200;8.78;33785.20
1724951177.705;200;9.11;33975.67
1724951177.754;200;9.11;33975.67
1724951177.804;200;9.11;33975.67
1724951177.855;200;9.11;33975.67
1724951177.905;200;9.22;34036.80
1724951177.955;200;10.00;34485.00
1724951178.005;200;10.00;34485.00
1724951178.054;200;9.66;34292.40
1724951178.104;200;9.24;34051.73
1724951178.155;200;9.29;34076.54
1724951178.205;200;9.29;34076.54
1724951178.254;200;9.29;34076.54
1724951178.305;200;9.92;34442.40
1724951178.355;200;10.00;34485.00
1724951178.405;200;10.00;34485.00
1724951178.454;200;9.28;34073.73
1724951178.505;200;9.28;34073.73
1724951178.555;200;9.28;34073.73
1724951178.605;200;10.00;34485.00
1724951178.654;200;8.63;33701.60
1724951178.705;200;8.81;33807.20
1724951178.755;200;9.95;34457.33
1724951178.805;200;9.95;34457.33
1724951178.854;200;9.95;34457.33
1724951178.904;200;9.95;34457.33
1724951178.955;200;9.95;34457.33
1724951179.005;200;8.40;33567.20
1724951179.054;200;8.45;33596.87
1724951179.105;200;8.42;33579.20
1724951179.155;200;9.27;34068.80
1724951179.205;200;9.27;34068.80
1724951179.255;200;9.27;34068.80
1724951179.305;200;9.17;34011.54
1724951179.355;200;10.00;34485.00
1724951179.405;200;10.00;34485.00
1724951179.455;200;10.00;34485.00
1724951179.505;200;10.00;34485.00
1724951179.555;200;10.00;34485.00
1724951179.605;200;10.00;34485.00
1724951179.655;200;9.88;34418.54
1724951179.706;200;10.00;34485.00
1724951179.757;200;9.97;34466.07
1724951197.545;200;7.54;33079.93
1724951197.645;200;7.58;33101.80
1724951197.695;200;7.58;33101.80
1724951197.745;200;7.58;33101.80
1724951197.795;200;7.58;33101.80
1724951197.895;200;9.42;34152.73
1724951197.945;200;10.00;34485.00
1724951197.995;200;10.00;34485.00
1724951198.045;200;10.00;34485.00
1724951198.097;200;10.00;34485.00
1724951198.146;200;10.00;34485.00
1724951198.196;200;10.00;34485.00
1724951198.297;200;10.00;34485.00
1724951198.347;200;8.58;33670.60
1724951198.397;200;8.58;33670.60
1724951198.446;200;8.58;33670.60
1724951198.496;200;8.58;33670.60
1724951198.547;200;9.90;34427.87
1724951198.597;200;9.93;34444.67
1724951198.647;200;8.18;33441.33
1724951198.697;200;8.18;33441.33
1724951198.748;200;8.18;33441.33
1724951198.798;200;8.47;33607.73
1724951198.848;200;9.56;34232.80
1724951198.898;200;10.00;34485.00
1724951198.948;200;10.00;34485.00
1724951198.997;200;10.00;34485.00
1724951199.047;200;10.00;34485.00
1724951199.098;200;10.00;34485.00
1724951199.148;200;9.89;34422.54
1724951199.197;200;9.29;34081.20
1724951199.247;200;10.00;34485.00
1724951199.298;200;10.00;34485.00
1724951199.347;200;10.00;34485.00
1724951199.398;200;10.00;34485.00
1724951199.447;200;9.87;34409.73
1724951199.498;200;9.40;34139.60
1724951199.548;200;10.00;34485.00
1724951199.598;200;10.00;34485.00
1724951199.648;200;10.00;34485.00
1724951199.697;200;10.00;34485.00
1724951199.747;200;8.50;33627.07
1724951199.797;200;10.00;34485.00
1724951199.848;200;10.00;34485.00
1724951199.898;200;10.00;34485.00
1724951199.948;200;10.00;34485.00
1724951199.998;200;10.00;34485.00
1724951200.048;200;10.00;34485.00
1724951200.099;200;9.20;34026.73
1724951200.149;200;9.99;34478.00
1724951200.199;200;9.99;34478.00
1724951200.249;200;9.99;34478.00
1724951200.298;200;9.85;34398.13
1724951200.349;200;9.82;34380.13
1724951200.399;200;8.72;33754.93
1724951200.449;200;8.97;33896.67
1724951200.500;200;8.97;33896.67
1724951200.550;200;8.97;33896.67
1724951200.601;200;8.97;33896.67
1724951200.650;200;10.00;34485.00
1724951200.700;200;9.17;34008.40
1724951200.751;200;9.47;34184.93
1724951200.801;200;9.47;34184.93
1724951200.851;200;9.47;34184.93
1724951200.901;200;9.47;34184.93
1724951200.951;200;9.89;34424.13
1724951201.002;200;9.09;33962.40
1724951201.052;200;9.90;34427.07
1724951201.103;200;9.90;34427.07
1724951201.153;200;9.90;34427.07
1724951201.203;200;9.90;34427.07
1724951201.252;200;10.00;34485.00
1724951201.303;200;9.54;34221.46
1724951201.354;200;8.84;33820.00
1724951201.404;200;8.84;33820.00
1724951201.453;200;8.84;33820.00
1724951201.503;200;8.84;33820.00
1724951201.553;200;8.58;33672.80
1724951201.604;200;8.63;33704.07
1724951201.654;200;9.39;34138.46
1724951201.704;200;9.39;34138.46
1724951201.755;200;9.39;34138.46
1724951201.805;200;9.39;34138.46
1724951201.855;200;8.77;33783.07
1724951201.906;200;9.93;34447.33
1724951201.955;200;8.41;33576.93
1724951202.006;200;8.57;33667.33
1724951202.055;200;8.57;33667.33
1724951202.105;200;8.57;33667.33
1724951202.155;200;9.77;34353.93
1724951202.206;200;8.59;33679.13
1724951202.255;200;9.85;34401.00
1724951202.305;200;9.57;34239.46
1724951202.355;200;9.53;34218.46
1724951202.405;200;9.53;34218.46
1724951202.455;200;9.53;34218.46
1724951202.505;200;9.53;34218.46
1724951202.555;200;9.02;33923.73
1724951202.605;200;9.90;34430.54
1724951202.655;200;9.76;34348.73
1724951202.706;200;9.76;34348.73
1724951202.756;200;9.76;34348.73
1724951202.807;200;9.76;34348.73
1724951202.856;200;9.76;34348.73
1724951202.906;200;10.00;34485.00
1724951202.955;200;10.00;34485.00
1724951203.005;200;8.75;33771.93
1724951203.055;200;8.81;33802.33
1724951203.107;200;9.18;34018.80
1724951203.156;200;9.18;34018.80
1724951203.206;200;9.18;34018.80
1724951203.256;200;9.18;34013.87
1724951203.307;200;9.38;34128.73
1724951203.356;200;10.00;34485.00
1724951203.406;200;8.68;33732.33
1724951203.457;200;8.68;33732.33
1724951203.506;200;8.68;33732.33
1724951203.557;200;8.68;33732.33
1724951203.607;200;8.13;33413.93
1724951203.657;200;10.00;34485.00
1724951203.707;200;9.37;34123.00
1724951203.757;200;8.89;33850.54
1724951203.807;200;8.89;33850.54
1724951203.857;200;8.89;33850.54
1724951203.907;200;8.89;33850.54
1724951203.957;200;9.51;34202.60
1724951204.006;200;10.00;34485.00
1724951204.057;200;9.54;34222.27
1724951204.106;200;8.70;33739.87
1724951204.157;200;8.70;33739.87
1724951204.207;200;8.70;33739.87
1724951204.257;200;8.89;33851.13
1724951204.308;200;10.00;34485.00
1724951204.358;200;9.14;33992.46
1724951204.408;200;9.14;33992.46
1724951204.458;200;9.14;33992.46
1724951204.508;200;9.14;33992.46
1724951204.558;200;9.26;34062.07
1724951204.608;200;10.00;34485.00
1724951204.657;200;10.00;34485.00
1724951204.708;200;10.00;34485.00
1724951204.758;200;10.00;34485.00
1724951204.808;200;10.00;34485.00
1724951204.859;200;9.05;33939.20
1724951204.908;200;9.40;34139.87
1724951204.958;200;8.68;33731.87
1724951205.008;200;8.68;33731.87
1724951205.059;200;8.68;33731.87
1724951205.109;200;8.68;33731.87
1724951205.159;200;9.75;34339.93
1724951205.209;200;9.87;34409.60
1724951205.259;200;9.97;34467.33
1724951205.308;200;9.97;34467.33
1724951205.358;200;9.97;34467.33
1724951205.408;200;9.97;34467.33
1724951205.459;200;8.85;33829.07
1724951205.509;200;10.00;34485.00
1724951205.559;200;8.58;33674.87
1724951330.353;350;8.03;33358.46
1724951330.403;350;8.03;33358.46
1724951330.453;350;8.03;33358.46
1724951330.503;350;8.03;33358.46
1724951330.553;350;7.53;33069.87
1724951330.653;350;8.86;33834.40
1724951330.703;350;9.84;34396.40
1724951330.753;350;9.84;34396.40
1724951330.803;350;9.84;34396.40
1724951330.853;350;10.00;34485.00
1724951330.903;350;10.00;34485.00
1724951330.954;350;10.00;34485.00
1724951331.004;350;10.00;34485.00
1724951331.054;350;10.00;34485.00
1724951331.104;350;10.00;34485.00
1724951331.155;350;9.34;34106.60
1724951331.204;350;9.16;34006.46
1724951331.255;350;10.00;34485.00
1724951331.305;350;10.00;34485.00
1724951331.354;350;10.00;34485.00
1724951331.405;350;10.00;34485.00
1724951331.454;350;9.15;33998.87
1724951331.505;350;10.00;34485.00
1724951331.555;350;10.00;34485.00
1724951331.604;350;9.15;34001.07
1724951331.654;350;9.15;34001.07
1724951331.704;350;9.15;34001.07
1724951331.755;350;9.16;34004.54
1724951331.805;350;10.00;34485.00
1724951331.855;350;8.69;33737.54
1724951331.905;350;9.42;34153.46
1724951331.956;350;9.42;34153.46
1724951332.005;350;9.42;34153.46
1724951332.056;350;9.42;34153.46
1724951332.106;350;9.53;34217.27
1724951332.157;350;10.00;34485.00
1724951332.206;350;9.69;34306.46
1724951332.257;350;9.69;34306.46
1724951332.306;350;9.69;34306.46
1724951332.357;350;8.83;33813.33
1724951332.407;350;10.00;34484.73
1724951332.457;350;8.67;33725.27
1724951332.506;350;8.79;33790.80
1724951332.558;350;8.79;33790.80
1724951332.608;350;8.79;33790.80
1724951332.657;350;8.79;33790.80
1724951332.708;350;9.01;33917.54
1724951332.758;350;9.71;34320.00
1724951332.809;350;10.00;34485.00
1724951332.859;350;10.00;34485.00
1724951332.909;350;10.00;34485.00
1724951332.958;350;10.00;34485.00
1724951333.009;350;10.00;34485.00
1724951333.059;350;10.00;34485.00
1724951333.109;350;10.00;34485.00
1724951333.159;350;10.00;34485.00
1724951333.209;350;10.00;34485.00
1724951333.259;350;10.00;34485.00
1724951333.309;350;10.00;34485.00
1724951333.359;350;10.00;34485.00
1724951333.409;350;9.29;34078.27
1724951333.459;350;8.85;33825.73
1724951333.509;350;10.00;34485.00
1724951333.559;350;10.00;34485.00
1724951333.609;350;10.00;34485.00
1724951333.659;350;10.00;34485.00
1724951333.710;350;9.81;34377.67
1724951333.760;350;8.93;33871.00
1724951333.810;350;9.39;34137.20
1724951333.860;350;9.39;34137.20
1724951333.910;350;9.39;34137.20
1724951333.961;350;9.39;34137.20
1724951334.010;350;10.00;34485.00
1724951334.060;350;10.00;34485.00
1724951334.111;350;9.04;33937.20
1724951334.162;350;9.04;33937.20
1724951334.212;350;9.04;33937.20
1724951334.261;350;9.04;33937.20
1724951334.311;350;8.97;33897.46
1724951334.361;350;8.49;33618.93
1724951334.413;350;8.83;33816.73
1724951334.463;350;8.83;33816.73
1724951334.514;350;8.83;33816.73
1724951334.564;350;9.41;34147.13
1724951334.613;350;9.45;34171.20
1724951334.664;350;9.25;34055.80
1724951334.714;350;9.25;34055.80
1724951334.765;350;9.25;34055.80
1724951334.814;350;9.25;34055.80
1724951334.865;350;9.25;34055.80
1724951334.915;350;10.00;34485.00
1724951334.965;350;10.00;34485.00
1724951335.014;350;9.94;34449.73
1724951335.065;350;9.94;34449.73
1724951335.114;350;9.94;34449.73
1724951335.166;350;10.00;34485.00
1724951335.215;350;10.00;34483.87
1724951335.265;350;10.00;34485.00
1724951335.316;350;9.93;34445.20
1724951335.366;350;9.93;34445.20
1724951335.416;350;9.93;34445.20
1724951335.466;350;10.00;34485.00
1724951335.516;350;10.00;34485.00
1724951335.567;350;10.00;34485.00
1724951335.617;350;10.00;34485.00
1724951335.667;350;10.00;34485.00
1724951335.717;350;10.00;34485.00
1724951335.767;350;10.00;34485.00
1724951335.817;350;9.22;34036.54
1724951335.867;350;8.79;33794.67
1724951335.917;350;10.00;34485.00
1724951335.968;350;10.00;34485.00
1724951336.017;350;10.00;34485.00
1724951336.067;350;8.71;33748.40
1724951336.117;350;9.69;34310.46
1724951336.167;350;10.00;34485.00
1724951336.217;350;10.00;34485.00
1724951336.268;350;10.00;34485.00
1724951336.318;350;9.78;34357.93
1724951336.368;350;8.67;33721.54
1724951336.418;350;9.17;34013.27
1724951336.467;350;9.17;34013.27
1724951336.517;350;9.17;34013.27
1724951336.567;350;9.55;34229.00
1724951336.619;350;10.00;34485.00
1724951336.669;350;10.00;34485.00
1724951336.720;350;10.00;34485.00
1724951336.769;350;10.00;34485.00
1724951336.820;350;10.00;34485.00
1724951336.869;350;9.69;34310.73
1724951336.926;350;10.00;34485.00
1724951336.972;350;10.00;34485.00
1724951337.023;350;9.12;33981.33
1724951337.072;350;9.12;33981.33
1724951337.122;350;9.12;33981.33
1724951337.172;350;9.12;33981.33
1724951337.222;350;10.00;34485.00
1724951337.272;350;9.98;34476.67
1724951337.322;350;9.84;34393.60
1724951337.372;350;9.16;34005.60
1724951337.423;350;9.16;34005.60
1724951337.473;350;9.16;34005.60
1724951337.523;350;9.16;34005.60
1724951337.574;350;10.00;34485.00
1724951337.624;350;10.00;34485.00
1724951337.674;350;10.00;34485.00
1724951337.724;350;9.26;34061.54
1724951337.774;350;9.26;34061.54
1724951337.824;350;9.26;34061.54
1724951337.874;350;9.26;34061.54
1724951337.924;350;10.00;34485.00
1724951337.975;350;10.00;34485.00
1724951338.024;350;10.00;34485.00
1724951338.076;350;10.00;34485.00
1724951338.125;350;10.00;34485.00
1724951338.177;350;10.00;34485.00
1724951338.227;350;10.00;34485.00
1724951338.277;350;9.82;34385.07
1724951338.327;350;10.00;34485.00
1724951338.377;350;10.00;34485.00
1724951338.427;350;9.59;34251.60
1724951338.477;350;9.59;34251.60
1724951338.526;350;10.00;34485.00
1724951338.577;350;10.00;34485.00
1724951338.626;350;10.00;34485.00
1724951338.677;350;10.00;34485.00
1724951338.727;350;10.00;34485.00
1724951338.777;350;10.00;34485.00
1724951338.827;350;9.90;34429.20
1724951338.877;350;9.88;34417.46
1724951356.398;350;8.45;33596.13
1724951356.447;350;7.77;33210.54
1724951356.498;350;7.77;33210.54
1724951356.548;350;7.77;33210.54
1724951356.597;350;7.68;33158.00
1724951356.648;350;9.69;34310.87
1724951356.699;350;9.29;34077.27
1724951356.748;350;9.29;34077.27
1724951356.799;350;9.29;34077.27
1724951356.849;350;9.29;34077.27
1724951356.899;350;10.00;34485.00
1724951356.949;350;9.08;33961.40
1724951356.999;350;9.11;33976.73
1724951357.049;350;9.11;33976.73
1724951357.100;350;9.11;33976.73
1724951357.149;350;9.11;33976.73
1724951357.200;350;8.94;33879.33
1724951357.249;350;8.67;33726.93
1724951357.300;350;9.08;33956.54
1724951357.350;350;8.51;33632.13
1724951357.400;350;8.51;33632.13
1724951357.450;350;8.51;33632.13
1724951357.500;350;8.51;33632.13
1724951357.551;350;9.05;33939.40
1724951357.601;350;9.89;34425.73
1724951357.651;350;10.00;34485.00
1724951357.701;350;10.00;34485.00
1724951357.751;350;10.00;34485.00
1724951357.802;350;10.00;34485.00
1724951357.853;350;9.90;34428.73
1724951357.902;350;9.90;34428.73
1724951357.953;350;8.53;33643.54
1724951358.003;350;8.53;33643.54
1724951358.053;350;8.74;33762.27
1724951358.103;350;8.96;33887.54
1724951358.152;350;9.70;34314.27
1724951358.202;350;9.70;34314.27
1724951358.252;350;9.70;34314.27
1724951358.302;350;10.00;34485.00
1724951358.353;350;10.00;34485.00
1724951358.402;350;10.00;34485.00
1724951358.452;350;8.81;33802.20
1724951358.503;350;8.81;33802.20
1724951358.553;350;8.81;33802.20
1724951358.603;350;8.81;33802.20
1724951358.653;350;10.00;34485.00
1724951358.703;350;10.00;34485.00
1724951358.753;350;8.41;33577.54
1724951358.804;350;9.36;34117.73
1724951358.854;350;9.36;34117.73
1724951358.904;350;9.36;34117.73
1724951358.954;350;9.36;34117.73
1724951359.004;350;9.54;34222.33
1724951359.054;350;9.11;33979.07
1724951359.104;350;9.08;33956.73
1724951359.154;350;9.57;34238.00
1724951359.204;350;9.57;34238.00
1724951359.254;350;9.57;34238.00
1724951359.304;350;9.57;34238.00
1724951359.354;350;9.83;34390.54
1724951359.404;350;10.00;34485.00
1724951359.455;350;9.09;33966.46
1724951359.505;350;9.09;33966.46
1724951359.555;350;9.09;33966.46
1724951359.605;350;9.09;33966.46
1724951359.655;350;9.05;33942.13
1724951359.706;350;9.42;34155.93
1724951359.756;350;10.00;34485.00
1724951359.806;350;10.00;34485.00
1724951359.856;350;10.00;34485.00
1724951359.906;350;10.00;34485.00
1724951359.956;350;10.00;34485.00
1724951360.006;350;9.28;34074.00
1724951360.058;350;8.85;33829.80
1724951360.107;350;8.85;33829.80
1724951360.157;350;8.85;33829.80
1724951360.207;350;8.68;33731.40
1724951360.257;350;10.00;34485.00
1724951360.308;350;10.00;34485.00
1724951360.358;350;10.00;34485.00
1724951360.407;350;10.00;34485.00
1724951360.458;350;10.00;34485.00
1724951360.508;350;10.00;34485.00
1724951360.558;350;9.86;34404.20
1724951360.607;350;9.83;34386.27
1724951360.659;350;8.59;33679.07
1724951360.709;350;8.59;33679.07
1724951360.759;350;8.59;33679.07
1724951360.809;350;8.59;33679.07
1724951360.859;350;10.00;34485.00
1724951360.909;350;10.00;34485.00
1724951360.959;350;9.71;34320.87
1724951361.009;350;9.71;34320.87
1724951361.059;350;9.71;34320.87
1724951361.109;350;9.71;34320.87
1724951361.159;350;9.71;34320.87
1724951361.209;350;10.00;34485.00
1724951361.259;350;9.09;33966.93
1724951361.309;350;9.81;34375.80
1724951361.359;350;10.00;34485.00
1724951361.409;350;10.00;34485.00
1724951361.459;350;10.00;34485.00
1724951361.509;350;10.00;34485.00
1724951361.560;350;10.00;34485.00
1724951361.610;350;8.90;33854.20
1724951361.660;350;9.39;34134.93
1724951361.710;350;9.39;34134.93
1724951361.760;350;9.39;34134.93
1724951361.810;350;8.96;33890.67
1724951361.860;350;9.05;33939.13
1724951361.910;350;9.11;33978.67
1724951361.960;350;9.11;33978.67
1724951362.010;350;9.11;33978.67
1724951362.060;350;9.11;33978.67
1724951362.110;350;9.44;34162.54
1724951362.160;350;9.08;33957.87
1724951362.210;350;9.43;34161.13
1724951362.260;350;9.43;34161.13
1724951362.310;350;9.43;34161.13
1724951362.360;350;9.43;34161.13
1724951362.410;350;8.76;33776.73
1724951362.460;350;9.94;34452.13
1724951362.510;350;9.86;34402.93
1724951362.561;350;8.74;33762.93
1724951362.611;350;8.74;33762.93
1724951362.661;350;8.74;33762.93
1724951362.711;350;8.77;33779.07
1724951362.761;350;10.00;34485.00
1724951362.812;350;10.00;34485.00
1724951362.862;350;9.39;34136.73
1724951362.912;350;9.39;34136.73
1724951362.962;350;10.00;34485.00
1724951363.012;350;10.00;34485.00
1724951363.062;350;10.00;34485.00
1724951363.112;350;10.00;34485.00
1724951363.162;350;10.00;34485.00
1724951363.212;350;10.00;34485.00
1724951363.262;350;10.00;34485.00
1724951363.312;350;10.00;34485.00
1724951363.363;350;8.94;33880.27
1724951363.413;350;9.25;34055.67
1724951363.464;350;9.25;34055.67
1724951363.513;350;9.25;34055.67
1724951363.564;350;8.71;33746.00
1724951363.614;350;10.00;34485.00
1724951363.665;350;8.85;33828.93
1724951363.715;350;10.00;34485.00
1724951363.764;350;9.81;34377.20
1724951363.814;350;9.81;34377.20
1724951363.865;350;9.81;34377.20
1724951363.915;350;10.00;34485.00
1724951363.965;350;9.53;34218.87
1724951364.015;350;9.05;33943.80
1724951364.065;350;10.00;34485.00
1724951364.115;350;10.00;34485.00
1724951364.165;350;10.00;34485.00
1724951364.216;350;10.00;34485.00
1724951364.265;350;10.00;34485.00
1724951364.315;350;10.00;34485.00
1724951364.365;350;10.00;34485.00
1724951364.416;350;10.00;34485.00
1724951364.465;350;10.00;34485.00
1724951364.515;350;10.00;34485.00
1724951364.566;350;10.00;34485.00
1724951364.616;350;9.87;34409.13
1724951381.925;350;8.12;33407.46
1724951381.975;350;7.50;33054.87
1724951382.026;350;7.50;33054.87
1724951382.075;350;7.50;33054.87
1724951382.125;350;7.50;33054.87
1724951382.175;350;9.65;34284.80
1724951382.225;350;9.01;33920.93
1724951382.275;350;9.48;34190.27
1724951382.325;350;9.48;34190.27
1724951382.375;350;9.48;34190.27
1724951382.426;350;9.48;34190.27
1724951382.476;350;9.09;33965.67
1724951382.526;350;8.94;33876.20
1724951382.575;350;9.69;34308.40
1724951382.626;350;9.69;34308.40
1724951382.675;350;9.69;34308.40
1724951382.725;350;9.69;34308.40
1724951382.776;350;9.17;34008.93
1724951382.826;350;9.17;34008.93
1724951382.876;350;9.15;34001.67
1724951382.926;350;9.15;34001.67
1724951382.975;350;9.15;34001.67
1724951383.026;350;9.15;34001.67
1724951383.076;350;9.77;34354.60
1724951383.132;350;9.77;34354.60
1724951383.179;350;9.63;34271.54
1724951383.229;350;9.16;34006.67
1724951383.279;350;9.16;34006.67
1724951383.329;350;9.16;34006.67
1724951383.379;350;9.16;34006.67
1724951383.429;350;8.93;33872.20
1724951383.480;350;10.00;34485.00
1724951383.530;350;9.96;34460.54
1724951383.580;350;9.95;34459.87
1724951383.629;350;9.95;34459.87
1724951383.679;350;9.95;34459.87
1724951383.730;350;9.95;34459.87
1724951383.780;350;9.22;34038.46
1724951383.830;350;8.81;33806.73
1724951383.881;350;8.38;33559.20
1724951383.931;350;8.38;33559.20
1724951383.981;350;8.38;33559.20
1724951384.031;350;8.75;33771.00
1724951384.083;350;10.00;34485.00
1724951384.133;350;10.00;34485.00
1724951384.182;350;9.16;34002.93
1724951384.232;350;9.16;34002.93
1724951384.283;350;9.16;34002.93
1724951384.333;350;9.16;34002.93
1724951384.382;350;9.25;34058.54
1724951384.433;350;9.44;34164.00
1724951384.483;350;9.77;34351.46
1724951384.533;350;9.77;34351.46
1724951384.582;350;9.77;34351.46
1724951384.633;350;9.77;34351.46
1724951384.683;350;9.77;34351.46
1724951384.733;350;9.83;34391.33
1724951384.784;350;10.00;34485.00
1724951384.834;350;9.94;34449.73
1724951384.884;350;9.47;34182.73
1724951384.934;350;9.47;34182.73
1724951384.985;350;9.47;34182.73
1724951385.034;350;9.66;34293.40
1724951385.084;350;10.00;34485.00
1724951385.134;350;10.00;34485.00
1724951385.185;350;10.00;34485.00
1724951385.235;350;10.00;34485.00
1724951385.284;350;10.00;34485.00
1724951385.335;350;10.00;34485.00
1724951385.384;350;9.99;34477.46
1724951385.435;350;9.73;34329.87
1724951385.484;350;9.13;33985.07
1724951385.535;350;9.13;33985.07
1724951385.584;350;9.13;33985.07
1724951385.634;350;9.79;34368.00
1724951385.684;350;9.18;34013.60
1724951385.735;350;9.35;34114.20
1724951385.784;350;9.35;34114.20
1724951385.835;350;9.35;34114.20
1724951385.885;350;9.35;34114.20
1724951385.935;350;9.93;34446.46
1724951385.985;350;10.00;34485.00
1724951386.034;350;10.00;34485.00
1724951386.086;350;9.79;34368.40
1724951386.135;350;9.79;34368.40
1724951386.185;350;9.79;34368.40
1724951386.236;350;9.79;34368.40
1724951386.285;350;9.14;33991.60
1724951386.335;350;9.14;33991.60
1724951386.385;350;9.32;34094.60
1724951386.436;350;9.24;34047.93
1724951386.486;350;9.24;34047.93
1724951386.536;350;9.24;34047.93
1724951386.586;350;9.24;34047.93
1724951386.636;350;9.13;33987.73
1724951386.687;350;9.95;34459.67
1724951386.737;350;9.53;34219.07
1724951386.787;350;9.76;34349.46
1724951386.837;350;9.76;34349.46
1724951386.887;350;9.76;34349.46
1724951386.938;350;9.76;34349.46
1724951386.987;350;9.77;34356.87
1724951387.037;350;9.55;34228.07
1724951387.087;350;10.00;34485.00
1724951387.138;350;10.00;34485.00
1724951387.188;350;10.00;34485.00
1724951387.238;350;10.00;34485.00
1724951387.287;350;10.00;34485.00
1724951387.337;350;10.00;34485.00
1724951387.387;350;10.00;34485.00
1724951387.437;350;10.00;34485.00
1724951387.487;350;10.00;34485.00
1724951387.538;350;10.00;34485.00
1724951387.587;350;10.00;34485.00
1724951387.638;350;10.00;34485.00
1724951387.688;350;10.00;34485.00
1724951387.737;350;10.00;34485.00
1724951387.787;350;10.00;34485.00
1724951387.837;350;10.00;34485.00
1724951387.891;350;10.00;34485.00
1724951387.938;350;10.00;34485.00
1724951387.988;350;10.00;34485.00
1724951388.038;350;10.00;34485.00
1724951388.088;350;10.00;34485.00
1724951388.139;350;10.00;34485.00
1724951388.189;350;10.00;34485.00
1724951388.240;350;9.68;34304.87
1724951388.290;350;10.00;34485.00
1724951388.340;350;9.91;34435.87
1724951388.390;350;9.68;34305.27
1724951388.440;350;9.37;34127.80
1724951388.490;350;9.37;34127.80
1724951388.540;350;9.37;34127.80
1724951388.591;350;9.37;34127.80
1724951388.641;350;9.37;34126.40
1724951388.690;350;8.75;33772.40
1724951388.742;350;9.02;33925.20
1724951388.792;350;9.95;34459.33
1724951388.841;350;9.93;34444.67
1724951388.892;350;9.93;34444.67
1724951388.942;350;9.93;34444.67
1724951388.992;350;9.93;34444.67
1724951389.042;350;9.93;34444.67
1724951389.092;350;8.80;33800.73
1724951389.142;350;9.33;34104.13
1724951389.191;350;9.27;34067.13
1724951389.242;350;9.44;34162.54
1724951389.292;350;9.44;34162.54
1724951389.342;350;9.44;34162.54
1724951389.392;350;9.44;34162.54
1724951389.441;350;10.00;34485.00
1724951389.492;350;10.00;34485.00
1724951389.542;350;10.00;34485.00
1724951389.593;350;9.37;34125.33
1724951389.643;350;9.37;34125.33
1724951389.693;350;9.37;34125.33
1724951389.743;350;10.00;34485.00
1724951389.794;350;9.80;34373.20
1724951389.844;350;9.80;34373.20
1724951389.896;350;9.80;34373.20
1724951389.947;350;9.80;34373.20
1724951389.997;350;9.64;34281.46
1724951390.046;350;9.82;34384.80
1724951390.096;350;10.00;34485.00
1724951390.146;350;10.00;34485.00
1724951631.142;50;5.97;34163.13
1724951631.342;50;6.11;34702.27
1724951631.392;50;6.01;34329.73
1724951631.643;50;6.80;37270.13
1724951631.943;50;6.66;36765.20
1724951631.993;50;6.04;34435.87
1724951632.295;50;6.12;34711.46
1724951632.344;50;6.12;34711.46
1724951632.394;50;6.12;34711.46
1724951632.445;50;6.12;34711.46
1724951632.495;50;6.00;34260.80
1724951632.544;50;5.99;34228.27
1724951632.846;50;6.12;34726.33
1724951632.895;50;6.33;35516.87
1724951632.955;50;6.33;35516.87
1724951633.051;50;6.19;35000.54
1724951633.102;50;6.19;35000.54
1724951633.153;50;6.19;35000.54
1724951633.202;50;6.19;35000.54
1724951633.253;50;7.05;38224.13
1724951633.304;50;6.39;35743.20
1724951633.354;50;6.63;36650.27
1724951633.554;50;6.26;35254.60
1724951634.605;50;5.98;34189.33
1724951634.655;50;5.98;34189.33
1724951634.704;50;5.98;34189.33
1724951635.004;50;6.87;37553.13
1724951635.754;50;5.99;34245.54
1724951635.805;50;5.99;34245.54
1724951635.855;50;5.99;34245.54
1724951637.205;50;6.13;34777.40
1724951637.255;50;6.13;34777.40
1724951637.305;50;6.13;34777.40
1724951637.355;50;6.13;34777.40
1724951637.557;50;6.63;36662.67
1724951637.607;50;6.63;36662.67
1724951637.657;50;6.63;36662.67
1724951637.707;50;6.63;36662.67
1724951661.325;50;6.05;34473.46
1724951661.374;50;6.05;34473.46
1724951661.425;50;6.05;34473.46
1724951661.476;50;6.05;34473.46
1724951661.531;50;6.05;34473.46
1724951661.626;50;6.17;34930.00
1724951661.676;50;6.25;35233.20
1724951661.726;50;6.25;35233.20
1724951661.775;50;6.25;35233.20
1724951661.826;50;6.25;35233.20
1724951661.926;50;6.07;34537.40
1724951662.175;50;6.11;34678.73
1724951662.476;50;5.98;34216.80
1724951683.649;50;6.04;34417.54
1724951683.999;50;6.12;34727.00
1724951684.250;50;6.03;34404.80
1724951874.189;44;10.00;33490.46
1724951874.241;59;10.00;33038.67
1724951874.442;11;10.00;34452.67
1724951876.195;57;10.00;33106.93
1724951876.446;56;10.00;33124.80
1724951876.696;46;10.00;33427.20
1724951877.297;55;10.00;33170.00
1724951877.347;55;10.00;33170.00
1724951877.397;55;10.00;33170.00
1724951877.448;55;10.00;33170.00
1724951877.547;40;10.00;33597.00
1724951877.598;47;10.00;33402.00
1724951877.647;47;10.00;33402.00
1724951877.698;47;10.00;33402.00
1724951877.748;47;10.00;33406.60
1724951877.798;49;10.00;33326.73
1724951877.848;11;10.00;34437.67
1724951877.898;20;10.00;34170.54
1724951877.948;12;10.00;34418.93
1724951877.997;12;10.00;34418.93
1724951878.048;12;10.00;34418.93
1724951878.098;12;10.00;34418.93
1724951878.148;16;10.00;34298.13
1724951878.198;22;10.00;34108.33
1724951878.248;29;10.00;33910.07
1724951878.299;59;10.00;33057.80
1724951878.349;28;10.00;33933.13
1724951878.399;28;10.00;33933.13
1724951878.450;28;10.00;33933.13
1724951878.499;28;10.00;33933.13
1724951878.549;13;10.00;34392.60
1724951878.599;33;10.00;33795.20
1724951878.649;47;10.00;33397.27
1724951878.699;52;10.00;33248.87
1724951878.749;52;10.00;33248.87
1724951878.799;52;10.00;33248.87
1724951878.849;58;10.00;33067.67
1724951878.899;21;10.00;34140.67
1724951878.949;10;10.00;34485.00
1724951878.998;12;10.00;34427.20
1724951879.049;12;10.00;34427.20
1724951879.099;12;10.00;34427.20
1724951879.149;10;10.00;34485.00
1724951879.499;59;10.00;33055.67
1724951879.699;59;10.00;33046.73
1724951879.950;27;10.00;33969.46
1724951880.250;59;10.00;33042.87
1724951880.501;21;10.00;34157.20
1724951899.167;59;10.00;33031.46
1724951899.218;55;10.00;33146.67
1724951899.268;55;10.00;33146.67
1724951899.318;55;10.00;33146.67
1724951899.368;57;10.00;33114.33
1724951899.418;51;10.00;33265.73
1724951899.469;36;10.00;33723.07
1724951899.520;36;10.00;33723.07
1724951899.569;36;10.00;33723.07
1724951899.620;36;10.00;33723.07
1724951899.669;36;10.00;33704.40
1724951899.719;43;10.00;33510.60
1724951899.769;10;10.00;34471.33
1724951899.819;10;10.00;34471.33
1724951899.869;10;10.00;34471.33
1724951899.920;10;10.00;34471.33
1724951899.969;53;10.00;33207.60
1724951900.020;11;10.00;34453.46
1724951900.070;41;10.00;33558.80
1724951900.119;42;10.00;33549.27
1724951900.169;42;10.00;33549.27
1724951900.220;42;10.00;33549.27
1724951900.269;13;10.00;34381.67
1724951900.320;59;10.00;33040.93
1724951900.371;59;10.00;33049.20
1724951900.421;59;10.00;33049.20
1724951900.471;59;10.00;33049.20
1724951900.521;59;10.00;33049.20
1724951900.621;48;10.00;33351.00
1724951900.671;20;10.00;34188.54
1724951900.721;20;10.00;34188.54
1724951900.771;20;10.00;34188.54
1724951900.820;20;10.00;34188.54
1724951900.870;35;10.00;33747.67
1724951900.971;34;10.00;33767.46
1724951901.021;34;10.00;33767.46
1724951901.072;34;10.00;33767.46
1724951901.121;34;10.00;33767.46
1724951901.172;52;10.00;33246.00
1724951901.272;10;10.00;34485.00
1724951901.321;10;10.00;34485.00
1724951901.371;10;10.00;34485.00
1724951901.422;10;10.00;34485.00
1724951901.471;54;10.00;33190.46
1724951901.571;46;10.00;33423.73
1724951901.621;46;10.00;33423.73
1724951901.672;46;10.00;33423.73
1724951901.722;46;10.00;33423.73
1724951901.772;53;10.00;33223.40
1724951901.822;25;10.00;34038.80
1724951901.871;45;10.00;33465.20
1724951901.921;45;10.00;33465.20
1724951901.971;45;10.00;33465.20
1724951902.022;45;10.00;33465.20
1724951902.071;14;10.00;34341.73
1724951902.122;10;10.00;34472.13
1724951902.171;50;10.00;33292.67
1724951902.222;58;10.00;33059.87
1724951902.271;58;10.00;33059.87
1724951902.323;58;10.00;33059.87
1724951902.373;58;10.00;33059.87
1724951902.423;10;10.00;34478.00
1724951902.473;10;10.00;34485.00
1724951902.523;12;10.00;34405.46
1724951902.573;39;10.00;33635.27
1724951902.623;39;10.00;33635.27
1724951902.673;39;10.00;33635.27
1724951902.723;39;10.00;33635.27
1724951902.823;52;10.00;33252.93
1724951902.923;58;10.00;33083.07
1724951902.974;58;10.00;33083.07
1724951903.024;58;10.00;33083.07
1724951903.074;38;10.00;33664.07
1724951903.124;51;10.00;33265.67
1724951903.225;16;10.00;34298.27
1724951903.275;48;10.00;33369.07
1724951903.325;48;10.00;33369.07
1724951903.375;48;10.00;33369.07
1724951903.425;44;10.00;33480.07
1724951903.525;28;10.00;33946.54
1724951903.576;56;10.00;33138.46
1724951903.627;56;10.00;33138.46
1724951903.676;56;10.00;33138.46
1724951903.726;56;10.00;33138.46
1724951903.827;50;10.00;33316.67
1724951903.876;10;10.00;34485.00
1724951903.927;10;10.00;34485.00
1724951903.977;10;10.00;34485.00
1724951904.027;10;10.00;34485.00
1724951904.127;36;10.00;33716.73
1724951904.379;18;10.00;34252.67
1724951904.429;39;10.00;33618.40
1724951904.479;59;10.00;33045.20
1724951904.529;59;10.00;33045.20
1724951904.579;59;10.00;33045.20
1724951904.630;59;10.00;33047.00
1724951904.729;49;10.00;33336.60
1724951904.780;36;10.00;33714.40
1724951904.831;36;10.00;33714.40
1724951904.881;36;10.00;33714.40
1724951904.931;27;10.00;33985.20
1724951904.981;11;10.00;34454.00
1724951905.031;10;10.00;34485.00
1724951905.080;36;10.00;33702.13
1724951905.131;36;10.00;33702.13
1724951905.181;36;10.00;33702.13
1724951905.231;17;10.00;34279.20
1724951905.281;32;10.00;33823.07
1724951905.331;31;10.00;33871.67
1724951905.381;31;10.00;33871.67
1724951905.431;31;10.00;33871.67
1724951905.480;31;10.00;33871.67
1724951905.531;17;10.00;34276.54
1724951905.581;10;10.00;34485.00
1724951905.631;11;10.00;34451.54
1724951905.680;11;10.00;34451.54
1724951905.730;11;10.00;34451.54
1724951905.780;11;10.00;34451.54
1724951905.831;11;10.00;34455.67
1724951905.882;44;10.00;33494.73
1724951905.931;53;10.00;33216.20
1724951905.981;34;10.00;33766.20
1724951906.032;34;10.00;33766.20
1724951906.082;34;10.00;33766.20
1724951906.132;47;10.00;33380.20
1724951906.183;20;10.00;34175.80
1724951906.233;24;10.00;34067.20
1724951906.282;16;10.00;34290.67
1724951906.333;16;10.00;34290.67
1724951906.383;16;10.00;34290.67
1724951906.433;28;10.00;33945.13
1724951906.483;35;10.00;33745.00
1724951906.534;39;10.00;33630.46
1724951906.583;31;10.00;33859.54
1724951906.633;31;10.00;33859.54
1724951906.684;31;10.00;33859.54
1724951906.734;31;10.00;33859.54
1724951906.784;11;10.00;34439.27
1724951906.835;10;10.00;34485.00
1724951906.885;23;10.00;34089.93
1724951906.935;23;10.00;34089.93
1724951906.984;23;10.00;34089.93
1724951907.034;23;10.00;34089.93
1724951907.084;30;10.00;33903.13
1724951907.135;49;10.00;33338.93
1724951907.235;49;10.00;33342.13
1724951907.284;49;10.00;33342.13
1724951907.335;49;10.00;33342.13
1724951907.385;45;10.00;33464.00
1724951907.436;53;10.00;33230.54
1724951907.485;10;10.00;34479.33
1724951925.509;59;10.00;33055.73
1724951925.558;57;10.00;33097.40
1724951925.808;10;10.00;34485.00
1724951925.859;54;10.00;33201.00
1724951926.060;54;10.00;33196.40
1724951926.110;10;10.00;34485.00
1724951926.160;58;10.00;33072.20
1724951926.210;59;10.00;33035.20
1724951926.260;59;10.00;33035.20
1724951926.311;59;10.00;33035.20
1724951926.361;57;10.00;33088.40
1724951926.410;11;10.00;34428.40
1724951926.461;10;10.00;34485.00
1724951926.511;11;10.00;34433.13
1724951926.561;11;10.00;34433.13
1724951926.611;11;10.00;34433.13
1724951926.661;11;10.00;34433.13
1724951926.712;31;10.00;33861.46
1724951926.761;42;10.00;33549.93
1724951926.812;32;10.00;33816.80
1724951926.861;32;10.00;33816.80
1724951926.912;32;10.00;33816.80
1724951926.962;33;10.00;33808.13
1724951927.012;15;10.00;34316.27
1724951927.063;12;10.00;34402.67
1724951927.113;38;10.00;33645.80
1724951927.163;38;10.00;33645.80
1724951927.213;38;10.00;33645.80
1724951927.263;38;10.00;33645.80
1724951927.313;17;10.00;34267.27
1724951927.363;17;10.00;34267.27
1724951927.413;47;10.00;33382.07
1724951927.463;47;10.00;33382.07
1724951927.513;47;10.00;33382.07
1724951927.564;47;10.00;33382.07
1724951927.613;13;10.00;34382.80
1724951927.663;16;10.00;34294.60
1724951927.714;10;10.00;34485.00
1724951927.764;10;10.00;34485.00
1724951927.814;32;10.00;33831.13
1724951927.865;32;10.00;33831.13
1724951927.914;32;10.00;33831.13
1724951927.964;29;10.00;33926.46
1724951928.014;14;10.00;34350.46
1724951928.064;22;10.00;34125.40
1724951928.114;52;10.00;33238.73
1724951928.165;52;10.00;33238.73
1724951928.214;52;10.00;33238.73
1724951928.264;52;10.00;33238.73
1724951928.315;56;10.00;33122.07
1724951928.364;57;10.00;33095.67
1724951928.415;13;10.00;34388.40
1724951928.465;17;10.00;34267.00
1724951928.516;33;10.00;33790.07
1724951928.566;33;10.00;33790.07
1724951928.616;33;10.00;33790.07
1724951928.666;33;10.00;33790.07
1724951928.715;23;10.00;34097.73
1724951928.766;57;10.00;33115.40
1724951928.815;13;10.00;34393.46
1724951928.865;13;10.00;34393.46
1724951928.916;13;10.00;34393.46
1724951928.965;22;10.00;34115.40
1724951929.016;52;10.00;33259.54
1724951929.065;52;10.00;33241.87
1724951929.267;59;10.00;33046.00
1724951929.317;31;10.00;33869.93
1724951929.367;54;10.00;33190.07
1724951929.416;54;10.00;33190.07
1724951929.466;54;10.00;33190.07
1724951929.516;54;10.00;33190.07
1724951929.566;49;10.00;33336.54
1724951929.616;30;10.00;33875.67
1724951929.666;30;10.00;33875.67
1724951929.716;21;10.00;34147.07
1724951929.766;21;10.00;34147.07
1724951929.816;21;10.00;34147.07
1724951929.866;21;10.00;34147.07
1724951929.916;46;10.00;33427.54
1724951929.966;23;10.00;34096.13
1724951930.016;52;10.00;33252.60
1724951930.067;52;10.00;33252.60
1724951930.116;52;10.00;33252.60
1724951930.167;52;10.00;33252.60
1724951930.217;10;10.00;34485.00
1724951930.267;20;10.00;34186.73
1724951930.317;11;10.00;34443.67
1724951930.366;11;10.00;34443.67
1724951930.417;11;10.00;34443.67
1724951930.466;10;10.00;34485.00
1724951930.517;58;10.00;33072.40
1724951930.567;53;10.00;33209.60
1724951930.616;43;10.00;33510.20
1724951930.666;43;10.00;33510.20
1724951930.716;43;10.00;33510.20
1724951930.817;50;10.00;33301.87
1724951930.867;52;10.00;33252.20
1724951930.917;45;10.00;33462.60
1724951930.966;45;10.00;33462.60
1724951931.017;45;10.00;33462.60
1724951931.067;51;10.00;33291.20
1724951931.117;25;10.00;34028.67
1724951931.166;42;10.00;33540.54
1724951931.217;42;10.00;33540.54
1724951931.267;42;10.00;33540.54
1724951931.317;30;10.00;33892.93
1724951931.367;21;10.00;34156.54
1724951931.418;28;10.00;33955.07
1724951931.468;28;10.00;33955.07
1724951931.519;28;10.00;33955.07
1724951931.569;42;10.00;33533.07
1724951931.618;28;10.00;33952.93
1724951931.669;32;10.00;33826.40
1724951931.719;20;10.00;34175.33
1724951931.768;20;10.00;34175.33
1724951931.819;20;10.00;34175.33
1724951931.869;13;10.00;34382.54
1724951931.918;13;10.00;34385.67
1724951931.969;18;10.00;34249.93
1724951932.019;18;10.00;34249.93
1724951932.069;18;10.00;34249.93
1724951932.119;18;10.00;34249.93
1724951932.168;47;10.00;33404.73
1724951932.226;35;10.00;33741.33
1724951932.273;25;10.00;34029.13
1724951932.323;25;10.00;34029.13
1724951932.373;25;10.00;34029.13
1724951932.423;25;10.00;34029.13
1724951932.473;53;10.00;33220.93
1724951932.523;12;10.00;34410.27
1724951932.573;13;10.00;34380.87
1724951932.623;24;10.00;34055.46
1724951932.673;24;10.00;34055.46
1724951932.723;24;10.00;34055.46
1724951932.773;24;10.00;34055.46
1724951932.824;14;10.00;34360.07
1724951932.874;14;10.00;34360.07
1724951932.923;10;10.00;34483.27
1724951932.974;10;10.00;34483.27
1724951933.024;43;10.00;33500.60
1724951933.074;43;10.00;33500.60
1724951933.124;43;10.00;33500.60
1724951933.174;43;10.00;33500.60
1724951933.223;24;10.00;34064.33
1724951933.274;24;10.00;34056.60
1724951933.324;41;10.00;33562.27
1724951933.374;14;10.00;34342.13
1724952083.164;29;10.00;34381.27
1724952083.214;29;10.00;34381.27
1724952083.263;29;10.00;34381.27
1724952083.316;29;10.00;34381.27
1724952083.366;29;10.00;34357.67
1724952083.517;28;10.00;34726.60
1724952083.566;28;10.00;34726.60
1724952083.616;28;10.00;34726.60
1724952083.666;28;10.00;34726.60
1724952083.716;29;10.00;34218.00
1724952083.817;27;10.00;35153.67
1724952083.867;27;10.00;35153.67
1724952083.917;27;10.00;35153.67
1724952083.968;27;10.00;35153.67
1724952084.018;26;10.00;35466.87
1724952084.267;24;10.00;35904.27
1724952084.368;29;10.00;34237.00
1724952084.417;29;10.00;34485.40
1724952084.468;29;10.00;34485.40
1724952084.518;29;10.00;34485.40
1724952084.568;19;10.00;37696.40
1724952084.618;24;10.00;35921.33
1724952084.668;24;10.00;36062.80
1724952084.718;24;10.00;36062.80
1724952084.768;24;10.00;36062.80
1724952084.818;24;10.00;36062.80
1724952084.969;29;10.00;34421.00
1724952085.168;29;10.00;34432.73
1724952085.219;23;10.00;36500.46
1724952085.269;29;10.00;34184.93
1724952085.470;19;10.00;37685.46
1724952085.770;29;10.00;34232.73
1724952086.070;27;10.00;35108.27
1724952086.873;29;10.00;34228.54
1724952087.427;29;10.00;34415.73
1724952088.282;29;10.00;34423.00
1724952088.333;29;10.00;34253.13
1724952088.382;29;10.00;34206.93
1724952088.433;29;10.00;34191.87
1724952088.483;29;10.00;34191.87
1724952088.533;29;10.00;34191.87
1724952088.583;21;10.00;37024.00
1724952088.633;29;10.00;34411.07
1724952088.683;29;10.00;34182.87
1724952088.734;29;10.00;34182.87
1724952088.784;29;10.00;34182.87
1724952088.835;29;10.00;34182.87
1724952088.884;29;10.00;34374.13
1724952088.984;22;10.00;36744.80
1724952089.035;22;10.00;36744.80
1724952089.085;22;10.00;36744.80
1724952089.135;22;10.00;36744.80
1724952089.285;24;10.00;35987.60
1724952089.335;24;10.00;35987.60
1724952089.385;24;10.00;35987.60
1724952089.435;24;10.00;35987.60
1724952089.485;21;10.00;37022.13
1724952089.585;25;10.00;35589.93
1724952089.790;27;10.00;35114.27
1724952089.838;19;10.00;37767.33
1724952108.665;28;10.00;34563.27
1724952108.716;30;10.00;34151.93
1724952108.766;30;10.00;34151.93
1724952108.816;30;10.00;34151.93
1724952108.865;30;10.00;34151.93
1724952108.916;25;10.00;35877.60
1724952108.965;25;10.00;35734.93
1724952109.016;23;10.00;36486.33
1724952109.065;23;10.00;36486.33
1724952109.116;23;10.00;36486.33
1724952109.165;25;10.00;35767.27
1724952109.216;25;10.00;35568.13
1724952109.265;24;10.00;36162.46
1724952109.316;25;10.00;35683.33
1724952109.367;25;10.00;35683.33
1724952109.416;25;10.00;35683.33
1724952109.467;25;10.00;35683.33
1724952109.517;23;10.00;36515.60
1724952109.566;18;10.00;38102.67
1724952109.617;28;10.00;34539.93
1724952109.667;28;10.00;34539.93
1724952109.718;28;10.00;34539.93
1724952109.768;28;10.00;34539.93
1724952109.818;26;10.00;35539.67
1724952109.867;27;10.00;35128.80
1724952109.918;21;10.00;36978.33
1724952109.968;21;10.00;36978.33
1724952110.019;21;10.00;36978.33
1724952110.069;21;10.00;36978.33
1724952110.120;20;10.00;37549.67
1724952110.170;22;10.00;36907.46
1724952110.221;22;10.00;36612.67
1724952110.271;22;10.00;36612.67
1724952110.322;22;10.00;36612.67
1724952110.371;27;10.00;34921.20
1724952110.421;24;10.00;36049.93
1724952110.471;27;10.00;35179.13
1724952110.521;27;10.00;35179.13
1724952110.571;27;10.00;35179.13
1724952110.622;26;10.00;35535.60
1724952110.672;16;10.00;38695.33
1724952110.723;22;10.00;36730.00
1724952110.773;22;10.00;36730.00
1724952110.822;22;10.00;36730.00
1724952110.872;22;10.00;36730.00
1724952110.922;29;10.00;34175.60
1724952110.973;29;10.00;34437.60
1724952111.023;29;10.00;34254.27
1724952111.073;29;10.00;34254.27
1724952111.122;29;10.00;34254.27
1724952111.173;29;10.00;34254.27
1724952111.273;28;10.00;34817.93
1724952111.324;24;10.00;36018.27
1724952111.374;24;10.00;36018.27
1724952111.424;24;10.00;36018.27
1724952111.475;24;10.00;36018.27
1724952111.575;25;10.00;35593.46
1724952111.624;23;10.00;36507.20
1724952111.674;19;10.00;37742.46
1724952111.725;19;10.00;37742.46
1724952111.775;19;10.00;37742.46
1724952111.824;19;10.00;37742.46
1724952111.874;12;10.00;40106.93
1724952111.925;22;10.00;36934.07
1724952111.975;24;10.00;36230.07
1724952112.024;29;10.00;34455.54
1724952112.074;29;10.00;34455.54
1724952112.124;29;10.00;34455.54
1724952112.175;29;10.00;34455.54
1724952112.274;19;10.00;37692.40
1724952112.324;20;10.00;37546.27
1724952112.375;24;10.00;36144.27
1724952112.425;24;10.00;36144.27
1724952112.475;24;10.00;36144.27
1724952112.525;20;10.00;37512.40
1724952112.575;24;10.00;36002.80
1724952112.625;27;10.00;34855.54
1724952112.875;27;10.00;34979.67
1724952112.925;29;10.00;34354.54
1724952113.226;29;10.00;34306.46
1724952113.276;21;10.00;37074.46
1724952113.376;28;10.00;34691.87
1724952113.425;28;10.00;34691.87
1724952113.476;28;10.00;34691.87
1724952113.576;28;10.00;34660.13
1724952113.625;21;10.00;37234.87
1724952113.675;18;10.00;38041.93
1724952113.726;18;10.00;38041.93
1724952113.775;18;10.00;38041.93
1724952113.826;21;10.00;37104.93
1724952114.125;24;10.00;36224.46
1724952114.729;29;10.00;34364.54
1724952134.818;28;10.00;34541.13
1724952134.868;27;10.00;34940.54
1724952135.119;16;10.00;38747.60
1724952135.175;24;10.00;35979.40
1724952135.222;28;10.00;34808.54
1724952135.272;26;10.00;35352.00
1724952135.322;26;10.00;35352.00
1724952135.372;26;10.00;35352.00
1724952135.422;29;10.00;34314.33
1724952135.472;23;10.00;36381.54
1724952135.522;23;10.00;36431.87
1724952135.572;23;10.00;36431.87
1724952135.622;23;10.00;36431.87
1724952135.673;23;10.00;36431.87
1724952135.724;19;10.00;37799.07
1724952135.774;18;10.00;38008.80
1724952135.824;21;10.00;37211.27
1724952135.875;26;10.00;35305.54
1724952135.924;26;10.00;35305.54
1724952135.974;26;10.00;35305.54
1724952136.024;26;10.00;35448.46
1724952136.075;25;10.00;35833.73
1724952136.125;25;10.00;35770.33
1724952136.175;26;10.00;35537.60
1724952136.225;26;10.00;35537.60
1724952136.274;26;10.00;35537.60
1724952136.326;22;10.00;36805.33
1724952136.376;24;10.00;36125.33
1724952136.426;28;10.00;34627.40
1724952136.477;18;10.00;38108.07
1724952136.527;18;10.00;38108.07
1724952136.577;18;10.00;38108.07
1724952136.627;18;10.00;38108.07
1724952136.677;28;10.00;34706.40
1724952136.726;24;10.00;35934.54
1724952136.777;29;10.00;34298.80
1724952136.827;26;10.00;35540.20
1724952136.876;27;10.00;35097.13
1724952136.927;27;10.00;35097.13
1724952136.977;27;10.00;35097.13
1724952137.027;18;10.00;38278.93
1724952137.127;29;10.00;34460.40
1724952137.178;25;10.00;35590.67
1724952137.228;25;10.00;35590.67
1724952137.277;25;10.00;35590.67
1724952137.377;25;10.00;35696.67
1724952137.428;25;10.00;35696.67
1724952137.477;26;10.00;35530.33
1724952137.527;26;10.00;35530.33
1724952137.577;26;10.00;35530.33
1724952137.628;23;10.00;36422.33
1724952137.678;23;10.00;36253.73
1724952137.728;23;10.00;36365.73
1724952137.778;25;10.00;35741.60
1724952137.828;25;10.00;35741.60
1724952137.878;25;10.00;35741.60
1724952137.928;25;10.00;35741.60
1724952137.978;17;10.00;38509.60
1724952138.028;23;10.00;36485.93
1724952138.078;30;10.00;34140.33
1724952138.128;30;10.00;34140.33
1724952138.178;30;10.00;34140.33
1724952138.228;30;10.00;34140.33
1724952138.278;26;10.00;35403.27
1724952138.328;20;10.00;37617.00
1724952138.378;29;10.00;34454.40
1724952138.428;29;10.00;34454.40
1724952138.478;29;10.00;34454.40
1724952138.528;29;10.00;34454.40
1724952138.578;29;10.00;34454.40
1724952138.628;27;10.00;34965.54
1724952138.679;27;10.00;35144.87
1724952138.728;26;10.00;35402.20
1724952138.778;17;10.00;38330.40
1724952138.829;17;10.00;38330.40
1724952138.878;17;10.00;38330.40
1724952138.928;17;10.00;38330.40
1724952138.978;18;10.00;38053.07
1724952139.028;20;10.00;37520.60
1724952139.080;21;10.00;37010.67
1724952139.129;21;10.00;37010.67
1724952139.180;21;10.00;37010.67
1724952139.230;21;10.00;37010.67
1724952139.279;22;10.00;36696.80
1724952139.331;21;10.00;37161.80
1724952139.580;22;10.00;36622.13
1724952139.881;28;10.00;34638.20
1724952139.930;29;10.00;34485.20
1724952139.980;29;10.00;34485.20
1724952140.031;29;10.00;34485.20
1724952140.081;29;10.00;34485.20
1724952140.130;29;10.00;34485.20
1724952140.231;21;10.00;37120.67
1724952140.430;19;10.00;37721.93
1724952140.480;28;10.00;34598.46
1724952140.782;27;10.00;35014.13
1724952140.832;29;10.00;34348.13
1724952141.033;27;10.00;34971.60
1724952141.133;26;10.00;35437.00
1724952141.383;23;10.00;36316.67
1724952141.534;27;10.00;34889.67
1724952141.584;27;10.00;34889.67
1724952141.634;27;10.00;34889.67
1724952141.684;27;10.00;34889.67
1724952141.734;28;10.00;34519.60
1724952141.835;24;10.00;35950.40
1724952141.884;19;10.00;37778.13
1724952141.934;19;10.00;37778.13
1724952141.984;19;10.00;37778.13
1724952142.034;22;10.00;36764.40
1724952142.385;28;10.00;34510.80
1724952142.686;22;10.00;36912.87
1724952142.736;21;10.00;37202.67
1724952196.834;200;5.98;34188.07
1724952196.884;200;6.02;34355.73
1724952196.933;200;6.17;34903.07
1724952196.983;200;6.17;34903.07
1724952197.033;200;6.17;34903.07
1724952197.133;200;7.41;39597.33
1724952197.183;200;7.43;39650.27
1724952197.234;200;7.43;39650.27
1724952197.284;200;7.43;39650.27
1724952197.334;200;7.43;39650.27
1724952197.384;200;7.52;40000.67
1724952197.434;200;6.25;35200.27
1724952197.484;200;6.50;36139.80
1724952197.534;200;6.46;36014.00
1724952197.584;200;6.46;36014.00
1724952197.634;200;6.46;36014.00
1724952197.684;200;5.97;34165.93
1724952197.784;200;6.14;34813.67
1724952197.835;200;6.25;35214.60
1724952197.885;200;6.32;35481.07
1724952197.934;200;6.32;35481.07
1724952197.984;200;6.32;35481.07
1724952198.036;200;6.86;37523.20
1724952198.086;200;6.93;37760.13
1724952198.135;200;7.09;38392.93
1724952198.187;200;6.77;37179.73
1724952198.237;200;6.22;35088.00
1724952198.287;200;6.22;35088.00
1724952198.337;200;6.22;35088.00
1724952198.387;200;6.22;35088.00
1724952198.436;200;6.00;34273.60
1724952198.486;200;6.06;34482.33
1724952198.537;200;7.39;39504.73
1724952198.587;200;6.66;36776.13
1724952198.637;200;7.75;40844.54
1724952198.687;200;7.75;40844.54
1724952198.737;200;7.75;40844.54
1724952198.787;200;7.75;40844.54
1724952198.837;200;6.93;37766.00
1724952198.886;200;6.10;34640.67
1724952198.937;200;6.82;37376.93
1724952198.987;200;6.82;37376.93
1724952199.037;200;6.82;37376.93
1724952199.087;200;6.82;37376.93
1724952199.137;200;6.12;34717.20
1724952199.187;200;7.02;38115.20
1724952199.237;200;7.24;38950.13
1724952199.287;200;7.24;38950.13
1724952199.337;200;7.24;38950.13
1724952199.387;200;6.72;36965.87
1724952199.437;200;7.19;38757.46
1724952199.487;200;7.20;38791.46
1724952199.537;200;6.52;36222.00
1724952199.587;200;6.52;36222.00
1724952199.637;200;6.52;36222.00
1724952199.688;200;6.52;36222.00
1724952199.738;200;7.57;40171.27
1724952199.789;200;7.81;41082.07
1724952200.040;200;6.52;36246.00
1724952200.340;200;5.99;34221.33
1724952200.390;200;6.34;35550.67
1724952200.640;200;7.23;38909.80
1724952200.692;200;7.63;40392.27
1724952200.741;200;6.36;35631.00
1724952200.792;200;6.36;35631.00
1724952200.841;200;6.36;35631.00
1724952200.891;200;6.08;34570.54
1724952200.942;200;6.68;36818.93
1724952200.993;200;6.94;37794.87
1724952201.042;200;6.76;37129.33
1724952201.094;200;6.76;37129.33
1724952201.144;200;6.76;37129.33
1724952201.194;200;6.76;37129.33
1724952201.244;200;6.94;37808.93
1724952201.295;200;7.12;38475.87
1724952201.344;200;7.69;40650.54
1724952201.395;200;7.69;40650.54
1724952201.445;200;7.69;40650.54
1724952201.494;200;7.69;40650.54
1724952201.544;200;7.69;40650.54
1724952201.596;200;7.40;39544.27
1724952201.645;200;6.26;35269.93
1724952201.696;200;6.78;37198.00
1724952201.745;200;6.13;34768.00
1724952201.796;200;6.13;34768.00
1724952201.846;200;6.13;34768.00
1724952201.896;200;6.13;34768.00
1724952201.946;200;6.34;35557.93
1724952201.996;200;6.36;35633.67
1724952202.046;200;7.80;41052.27
1724952202.095;200;7.14;38559.60
1724952202.145;200;7.14;38559.60
1724952202.196;200;7.14;38559.60
1724952202.247;200;7.14;38559.60
1724952202.297;200;6.59;36489.80
1724952202.347;200;7.62;40384.27
1724952202.397;200;7.46;39751.93
1724952202.446;200;6.81;37316.87
1724952202.497;200;6.81;37316.87
1724952202.547;200;6.81;37316.87
1724952202.598;200;6.81;37316.87
1724952202.647;200;6.67;36791.00
1724952202.698;200;6.67;36791.00
1724952202.747;200;7.53;40051.20
1724952202.798;200;7.54;40075.20
1724952202.847;200;6.61;36569.73
1724952202.898;200;6.61;36569.73
1724952202.948;200;6.61;36569.73
1724952202.998;200;7.05;38216.67
1724952203.048;200;5.99;34226.00
1724952203.101;200;5.99;34226.00
1724952203.149;200;6.03;34374.54
1724952203.198;200;5.99;34219.60
1724952203.249;200;6.02;34366.67
1724952203.298;200;6.02;34366.67
1724952203.350;200;6.02;34366.67
1724952203.400;200;6.02;34366.67
1724952203.500;200;6.12;34732.80
1724952203.550;200;6.50;36154.00
1724952203.600;200;6.46;35986.87
1724952203.650;200;6.46;35986.87
1724952203.700;200;6.46;35986.87
1724952203.749;200;6.46;35986.87
1724952203.800;200;7.28;39110.33
1724952203.850;200;6.92;37721.20
1724952203.901;200;7.71;40717.73
1724952203.951;200;5.96;34135.13
1724952204.001;200;5.96;34135.13
1724952204.051;200;5.96;34135.13
1724952204.100;200;5.96;34135.13
1724952204.151;200;7.67;40550.40
1724952204.202;200;7.70;40664.93
1724952204.251;200;6.94;37822.46
1724952204.302;200;6.94;37822.46
1724952204.351;200;6.94;37822.46
1724952204.402;200;6.94;37822.46
1724952204.451;200;7.56;40157.87
1724952204.502;200;7.72;40746.00
1724952204.551;200;7.61;40350.20
1724952204.602;200;7.61;40350.20
1724952204.652;200;7.61;40350.20
1724952204.702;200;7.61;40350.20
1724952204.752;200;6.57;36406.33
1724952204.802;200;6.00;34271.80
1724952223.473;200;6.13;34780.93
1724952223.523;200;6.13;34780.93
1724952223.573;200;6.13;34780.93
1724952223.674;200;7.30;39173.00
1724952223.724;200;7.24;38924.87
1724952223.774;200;7.24;38924.87
1724952223.824;200;7.24;38924.87
1724952223.874;200;7.24;38924.87
1724952223.974;200;6.12;34710.13
1724952224.024;200;6.05;34454.20
1724952224.074;200;6.05;34454.20
1724952224.124;200;6.05;34454.20
1724952224.174;200;6.05;34454.20
1724952224.224;200;6.42;35848.33
1724952224.275;200;6.47;36025.60
1724952224.325;200;6.47;36025.60
1724952224.374;200;6.47;36025.60
1724952224.425;200;6.47;36025.60
1724952224.475;200;7.54;40054.60
1724952224.526;200;7.29;39129.07
1724952224.575;200;7.78;40973.73
1724952224.625;200;7.49;39892.60
1724952224.676;200;7.49;39892.60
1724952224.725;200;7.49;39892.60
1724952224.775;200;7.49;39892.60
1724952224.826;200;7.22;38858.40
1724952224.875;200;6.59;36480.73
1724952224.926;200;6.47;36047.33
1724952224.977;200;7.20;38786.67
1724952225.033;200;7.20;38786.67
1724952225.229;200;6.42;35850.73
1724952225.278;200;6.66;36751.60
1724952225.328;200;6.00;34267.00
1724952225.579;200;6.01;34312.20
1724952225.829;200;6.10;34656.67
1724952225.930;200;5.98;34209.93
1724952226.431;200;6.51;36197.00
1724952226.632;200;6.19;34980.80
1724952226.683;200;5.97;34167.07
1724952226.733;200;5.97;34167.07
1724952226.784;200;5.97;34167.07
1724952226.834;200;5.97;34167.07
1724952226.884;200;6.24;35175.40
1724952226.934;200;6.26;35236.67
1724952226.985;200;6.26;35236.67
1724952227.034;200;6.26;35236.67
1724952227.085;200;6.26;35236.67
1724952227.134;200;6.15;34854.20
1724952227.785;200;6.04;34415.60
1724952227.835;200;6.04;34415.60
1724952228.488;200;6.10;34663.20
1724952228.538;200;5.98;34201.33
1724952229.340;200;6.02;34336.60
1724952229.740;200;5.96;34135.07
1724952229.992;200;6.24;35189.73
1724952230.046;200;6.24;35189.73
1724952249.220;200;6.20;35038.13
1724952249.270;200;6.20;35038.13
1724952249.320;200;6.20;35038.13
1724952249.369;200;6.29;35366.40
1724952249.419;200;6.09;34619.73
1724952249.470;200;7.07;38291.20
1724952249.520;200;6.79;37253.87
1724952249.570;200;6.79;37253.87
1724952249.620;200;6.79;37253.87
1724952249.670;200;7.46;39769.13
1724952249.719;200;6.16;34893.87
1724952249.770;200;7.51;39963.87
1724952249.820;200;7.51;39963.87
1724952249.870;200;7.51;39963.87
1724952249.920;200;7.51;39963.87
1724952250.021;200;6.26;35245.93
1724952250.070;200;6.15;34826.93
1724952250.120;200;6.15;34826.93
1724952250.171;200;6.15;34826.93
1724952250.221;200;6.15;34826.93
1724952250.270;200;6.05;34472.13
1724952250.372;200;5.97;34169.00
1724952250.421;200;6.02;34352.60
1724952250.471;200;6.02;34352.60
1724952250.521;200;6.02;34352.60
1724952250.571;200;6.02;34352.60
1724952250.621;200;5.98;34197.54
1724952250.671;200;6.63;36658.54
1724952250.721;200;6.22;35083.54
1724952250.771;200;7.13;38518.46
1724952250.822;200;5.98;34202.00
1724952250.871;200;5.98;34202.00
1724952250.921;200;5.98;34202.00
1724952250.972;200;6.61;36588.27
1724952251.021;200;6.08;34556.27
1724952251.072;200;6.46;35993.20
1724952251.122;200;6.47;36046.73
