UnixTimestamp;Microseconds;MilliAmpere;BaseValue
1725882317.532;500;1.00
1725882317.580;500;1.00
1725882317.630;500;1.00
1725882317.680;500;1.00
1725882317.730;500;1.00
1725882317.779;500;1.00
1725882317.830;500;1.00
1725882317.881;500;1.00
1725882317.931;500;1.00
1725882317.981;500;1.00
1725882318.031;500;1.00
1725882318.080;500;1.00
1725882318.131;500;1.00
1725882318.181;500;1.00
1725882318.231;500;1.00
1725882321.419;1;40.00
1725882321.469;1;40.00
1725882321.520;1;40.00
1725882321.570;1;40.00
1725882321.621;1;40.00
1725882321.671;1;40.00
1725882321.721;1;40.00
1725882321.771;1;40.00
1725882321.821;1;40.00
1725882321.871;1;40.00
1725882321.922;1;40.00
1725882321.972;1;40.00
1725882322.022;1;40.00
1725882322.072;1;40.00
1725882322.123;1;40.00
1725882322.173;1;40.00
1725882322.223;1;40.00
1725882361.323;286;10.00;34466.93
1725882361.373;225;10.00;36620.27
1725882361.423;225;10.00;36620.27
1725882361.473;225;10.00;36620.27
1725882361.523;141;10.00;39586.13
1725882361.573;145;10.00;39432.40
1725882361.623;145;10.00;39432.40
1725882361.674;145;10.00;39432.40
1725882361.724;158;10.00;38995.87
1725882361.774;158;10.00;38995.87
1725882361.823;168;10.00;38634.27
1725882361.874;212;10.00;37094.40
1725882361.924;215;10.00;36969.73
1725882361.974;215;10.00;36969.73
1725882362.024;228;10.00;36526.54
1725882362.074;279;10.00;34710.27
1725882362.124;279;10.00;34710.27
1725882362.174;279;10.00;34710.27
1725882362.225;209;10.00;37181.20
1725882362.276;188;10.00;37929.07
1725882362.325;188;10.00;37929.07
1725882362.376;188;10.00;37929.07
1725882362.425;155;10.00;39090.00
1725882362.476;155;10.00;39090.00
1725882362.525;155;10.00;39090.00
1725882362.576;123;10.00;40233.93
1725882362.625;191;10.00;37832.93
1725882362.676;191;10.00;37832.93
1725882362.725;191;10.00;37832.93
1725882362.775;203;10.00;37402.93
1725882362.825;172;10.00;38492.67
1725882362.876;172;10.00;38492.67
1725882362.926;231;10.00;36429.73
1725882362.976;166;10.00;38698.80
1725882363.026;251;10.00;35725.73
1725882363.076;251;10.00;35725.73
1725882363.126;103;10.00;40932.40
1725882363.176;115;10.00;40511.46
1725882363.226;115;10.00;40511.46
1725882363.276;115;10.00;40511.46
1725882363.326;262;10.00;35322.93
1725882363.376;262;10.00;35322.93
1725882363.427;262;10.00;35322.93
1725882363.476;199;10.00;37527.87
1725882363.526;127;10.00;40095.07
1725882363.576;127;10.00;40095.07
1725882363.626;226;10.00;36600.13
1725882363.676;249;10.00;35781.20
1725882363.727;249;10.00;35781.20
1725882363.776;249;10.00;35781.20
1725882363.826;148;10.00;39347.80
1725882363.876;156;10.00;39041.93
1725882363.926;156;10.00;39041.93
1725882363.976;266;10.00;35178.60
1725882364.026;237;10.00;36190.93
1725882364.077;237;10.00;36190.93
1725882364.126;203;10.00;37411.13
1725882364.176;249;10.00;35798.27
1725882364.226;249;10.00;35798.27
1725882364.277;249;10.00;35798.27
1725882364.326;287;10.00;34437.73
1725882364.377;287;10.00;34437.73
1725882364.427;287;10.00;34437.73
1725882364.477;172;10.00;38504.00
1725882364.527;106;10.00;40825.46
1725882364.577;106;10.00;40825.46
1725882364.628;131;10.00;39941.87
1725882364.679;167;10.00;38660.13
1725882364.728;167;10.00;38660.13
1725882364.778;167;10.00;38660.13
1725882364.828;232;10.00;36365.67
1725882364.878;232;10.00;36365.67
1725882364.929;232;10.00;36365.67
1725882364.978;169;10.00;38612.00
1725882365.028;205;10.00;37338.54
1725882365.079;205;10.00;37338.54
1725882365.129;114;10.00;40524.80
1725882365.179;137;10.00;39715.60
1725882365.229;137;10.00;39715.60
1725882365.279;137;10.00;39715.60
1725882365.329;203;10.00;37413.33
1725882365.379;224;10.00;36677.73
1725882365.429;224;10.00;36677.73
1725882365.480;224;10.00;36677.73
1725882365.529;116;10.00;40474.40
1725882365.580;116;10.00;40474.40
1725882365.630;116;10.00;40474.40
1725882365.680;155;10.00;39100.93
1725882365.730;165;10.00;38740.27
1725882365.780;165;10.00;38740.27
1725882365.829;83;10.00;41642.67
1725882375.959;278;10.00;34750.40
1725882376.009;278;10.00;34750.40
1725882376.109;231;10.00;36402.80
1725882376.160;231;10.00;36402.80
1725882376.210;269;10.00;35070.93
1725882376.260;170;10.00;38577.33
1725882376.310;170;10.00;38577.33
1725882376.360;80;10.00;41741.46
1725882376.410;72;10.00;42033.13
1725882376.461;72;10.00;42033.13
1725882376.511;192;10.00;37786.00
1725882376.562;247;10.00;35841.07
1725882376.612;247;10.00;35841.07
1725882376.661;186;10.00;38009.54
1725882376.711;202;10.00;37436.07
1725882376.761;202;10.00;37436.07
1725882376.812;214;10.00;37006.67
1725882376.862;158;10.00;38991.20
1725882376.913;158;10.00;38991.20
1725882376.963;143;10.00;39528.40
1725882377.013;143;10.00;39528.40
1725882377.063;143;10.00;39528.40
1725882377.113;277;10.00;34777.46
1725882377.163;277;10.00;34777.46
1725882377.214;277;10.00;34777.46
1725882377.264;94;10.00;41250.27
1725882377.314;94;10.00;41250.27
1725882377.364;94;10.00;41250.27
1725882377.414;243;10.00;36009.46
1725882377.464;101;10.00;41002.00
1725882377.514;101;10.00;41002.00
1725882377.565;101;10.00;41002.00
1725882377.614;128;10.00;40060.73
1725882377.664;128;10.00;40060.73
1725882377.714;128;10.00;40060.73
1725882377.764;153;10.00;39160.00
1725882377.814;153;10.00;39160.00
1725882377.865;150;10.00;39261.33
1725882377.915;158;10.00;38977.87
1725882377.965;158;10.00;38977.87
1725882378.016;146;10.00;39403.20
1725882378.065;159;10.00;38955.93
1725882378.115;159;10.00;38955.93
1725882378.165;185;10.00;38038.27
1725882378.216;248;10.00;35823.07
1725882378.266;248;10.00;35823.07
1725882378.316;248;10.00;35823.07
1725882378.366;131;10.00;39941.46
1725882378.416;131;10.00;39941.46
1725882378.466;135;10.00;39785.33
1725882378.516;172;10.00;38511.87
1725882378.566;172;10.00;38511.87
1725882378.616;172;10.00;38511.87
1725882378.666;201;10.00;37467.60
1725882378.716;201;10.00;37467.60
1725882378.767;201;10.00;37467.60
1725882378.816;163;10.00;38802.60
1725882378.867;163;10.00;38802.60
1725882378.917;163;10.00;38802.60
1725882378.967;233;10.00;36328.67
1725882379.017;233;10.00;36328.67
1725882379.067;233;10.00;36328.67
1725882379.118;197;10.00;37600.33
1725882379.168;73;10.00;41985.20
1725882379.217;73;10.00;41985.20
1725882379.267;39;10.00;43174.67
1725882379.318;109;10.00;40709.73
1725882379.368;116;10.00;40478.67
1725882379.418;116;10.00;40478.67
1725882379.468;251;10.00;35719.73
1725882379.517;126;10.00;40113.87
1725882379.568;126;10.00;40113.87
1725882379.618;126;10.00;40113.87
1725882379.667;255;10.00;35580.13
1725882379.718;255;10.00;35580.13
1725882379.768;255;10.00;35580.13
1725882379.818;95;10.00;41199.07
1725882379.868;152;10.00;39210.67
1725882379.918;152;10.00;39210.67
1725882379.968;156;10.00;39052.67
1725882390.410;289;10.00;34356.40
1725882390.561;86;10.00;41516.93
1725882390.611;248;10.00;35807.80
1725882390.660;248;10.00;35807.80
1725882390.711;153;10.00;39164.87
1725882390.760;209;10.00;37194.13
1725882390.811;209;10.00;37194.13
1725882390.860;185;10.00;38030.13
1725882390.911;145;10.00;39457.60
1725882390.961;145;10.00;39457.60
1725882391.011;135;10.00;39784.27
1725882391.062;239;10.00;36140.80
1725882391.113;239;10.00;36140.80
1725882391.162;186;10.00;37998.93
1725882391.213;180;10.00;38213.87
1725882391.263;180;10.00;38213.87
1725882391.313;180;10.00;38213.87
1725882391.363;191;10.00;37826.80
1725882391.413;218;10.00;36887.73
1725882391.464;205;10.00;37343.33
1725882391.514;205;10.00;37343.33
1725882391.563;263;10.00;35288.54
1725882391.613;212;10.00;37079.07
1725882391.664;248;10.00;35799.07
1725882391.714;248;10.00;35799.07
1725882391.764;209;10.00;37202.13
1725882391.814;142;10.00;39552.54
1725882391.864;142;10.00;39552.54
1725882391.914;142;10.00;39552.54
1725882391.964;229;10.00;36469.20
1725882392.013;229;10.00;36469.20
1725882392.064;229;10.00;36469.20
1725882392.114;267;10.00;35150.40
1725882392.164;83;10.00;41636.13
1725882392.214;83;10.00;41636.13
1725882392.265;105;10.00;40842.54
1725882392.315;173;10.00;38461.73
1725882392.365;173;10.00;38461.73
1725882392.414;173;10.00;38461.73
1725882392.464;175;10.00;38382.13
1725882392.515;175;10.00;38382.13
1725882392.564;175;10.00;38382.13
1725882392.615;206;10.00;37283.67
1725882392.664;211;10.00;37132.46
1725882392.715;211;10.00;37132.46
1725882392.764;168;10.00;38638.93
1725882392.814;76;10.00;41878.13
1725882392.864;76;10.00;41878.13
1725882392.914;73;10.00;41983.07
1725882392.964;73;10.00;41983.07
1725882393.015;73;10.00;41983.07
1725882393.064;156;10.00;39063.46
1725882393.114;213;10.00;37057.93
1725882393.164;213;10.00;37057.93
1725882393.214;213;10.00;37057.93
1725882393.265;242;10.00;36024.93
1725882393.314;242;10.00;36024.93
1725882393.366;242;10.00;36024.93
1725882393.416;149;10.00;39306.93
1725882393.465;90;10.00;41375.67
1725882393.516;90;10.00;41375.67
1725882393.566;90;10.00;41375.67
1725882393.616;138;10.00;39704.40
1725882393.666;94;10.00;41258.93
1725882393.716;94;10.00;41258.93
1725882393.766;94;10.00;41258.93
1725882393.817;238;10.00;36156.00
1725882393.867;135;10.00;39814.87
1725882393.917;135;10.00;39814.87
1725882393.968;165;10.00;38751.87
1725882394.018;150;10.00;39271.07
1725882394.068;150;10.00;39271.07
1725882394.117;150;10.00;39271.07
1725882394.168;198;10.00;37583.80
1725882394.218;198;10.00;37583.80
1725882394.267;198;10.00;37583.80
1725882394.318;202;10.00;37444.54
1725882394.368;162;10.00;38836.27
1725882394.418;162;10.00;38836.27
1725882394.468;165;10.00;38749.60
1725882394.519;100;10.00;41033.60
1725882394.569;100;10.00;41033.60
1725882394.619;100;10.00;41033.60
1725882394.669;88;10.00;41440.54
1725882394.719;177;10.00;38323.73
1725882394.768;177;10.00;38323.73
1725882394.820;109;10.00;40715.87
1725882736.055;500;29.66;35573.20
1725882736.105;500;29.66;35573.20
1725882736.156;500;28.42;34434.67
1725882736.206;500;30.77;36599.40
1725882736.256;500;30.77;36599.40
1725882736.306;500;30.77;36599.40
1725882736.356;500;33.55;39148.93
1725882736.407;500;36.57;41923.46
1725882736.457;500;36.57;41923.46
1725882736.507;500;36.57;41923.46
1725882736.557;500;36.00;41399.13
1725882736.608;500;34.82;40318.07
1725882736.657;500;34.82;40318.07
1725882736.707;500;32.21;37921.20
1725882736.757;500;33.65;39242.20
1725882736.807;500;33.65;39242.20
1725882736.857;500;34.47;39990.00
1725882736.907;500;31.97;37699.20
1725882736.957;500;31.97;37699.20
1725882737.007;500;31.97;37699.20
1725882737.057;500;31.87;37606.54
1725882737.108;500;32.36;38052.80
1725882737.157;500;32.36;38052.80
1725882737.207;500;32.36;38052.80
1725882737.258;500;34.35;39887.87
1725882737.308;500;34.35;39887.87
1725882737.358;500;34.35;39887.87
1725882737.408;500;33.63;39221.07
1725882737.458;500;31.82;37557.46
1725882737.509;500;31.82;37557.46
1725882737.558;500;32.56;38238.00
1725882737.608;500;31.35;37127.07
1725882737.659;500;31.35;37127.07
1725882737.708;500;29.70;35612.27
1725882737.758;500;32.26;37963.46
1725882737.808;500;32.26;37963.46
1725882737.858;500;32.26;37963.46
1725882737.909;500;33.02;38662.54
1725882737.959;500;35.50;40938.80
1725882738.009;500;35.50;40938.80
1725882738.059;500;30.58;36422.00
1725882738.259;500;32.25;37950.87
1725882738.310;500;29.14;35096.13
1725882738.359;500;29.14;35096.13
1725882738.410;500;29.14;35096.13
1725882738.459;500;35.03;40505.07
1725882738.510;500;35.03;40505.07
1725882738.560;500;35.03;40505.07
1725882738.610;500;31.85;37591.87
1725882738.660;500;35.86;41272.40
1725882738.710;500;35.86;41272.40
1725882738.760;500;36.13;41517.60
1725882738.810;500;29.38;35323.07
1725882738.861;500;29.38;35323.07
1725882738.911;500;29.38;35323.07
1725882738.960;500;35.94;41344.54
1725882739.011;500;35.30;40753.40
1725882739.060;500;35.30;40753.40
1725882739.111;500;35.30;40753.40
1725882739.161;500;33.29;38910.80
1725882739.211;500;33.29;38910.80
1725882739.262;500;33.29;38910.80
1725882739.313;500;30.69;36521.07
1725882739.363;500;36.66;42006.00
1725882739.413;500;36.66;42006.00
1725882739.463;500;31.01;36820.27
1725882739.513;500;32.12;37839.93
1725882739.563;500;32.12;37839.93
1725882739.613;500;32.12;37839.93
1725882739.663;500;29.15;35113.73
1725882739.714;500;29.15;35113.73
1725882739.763;500;29.15;35113.73
1725882739.813;500;33.15;38786.00
1725882739.864;500;35.55;40986.13
1725882739.915;500;35.55;40986.13
1725882739.964;500;32.52;38199.27
1725882740.014;500;34.33;39869.46
1725882740.065;500;34.33;39869.46
1725882740.115;500;34.33;39869.46
1725882740.164;500;35.82;41237.33
1725882740.224;500;34.26;39798.40
1725882740.269;500;33.42;39030.80
1725882740.319;500;33.42;39030.80
1725882740.371;500;30.39;36247.60
1725882740.420;500;31.15;36948.27
1725882740.470;500;31.38;37153.73
1725882740.521;500;31.38;37153.73
1725882740.571;500;34.32;39858.13
1725882751.160;500;29.13;35092.73
1725882751.209;500;29.13;35092.73
1725882751.259;500;30.26;36130.54
1725882751.310;500;31.28;37062.80
1725882751.360;500;31.28;37062.80
1725882751.409;500;31.28;37062.80
1725882751.459;500;29.77;35682.40
1725882751.510;500;29.77;35682.40
1725882751.560;500;29.77;35682.40
1725882751.610;500;32.18;37886.80
1725882751.660;500;32.42;38116.00
1725882751.710;500;32.42;38116.00
1725882751.759;500;35.36;40813.46
1725882751.810;500;34.85;40340.27
1725882751.860;500;34.85;40340.27
1725882751.910;500;34.85;40340.27
1725882751.961;500;33.55;39150.27
1725882752.011;500;33.55;39150.27
1725882752.060;500;33.55;39150.27
1725882752.111;500;32.48;38164.80
1725882752.161;500;29.53;35455.54
1725882752.211;500;29.53;35455.54
1725882752.260;500;29.53;35455.54
1725882752.311;500;35.80;41219.13
1725882752.360;500;36.77;42105.46
1725882752.411;500;36.77;42105.46
1725882752.461;500;34.78;40282.00
1725882752.511;500;28.62;34618.40
1725882752.560;500;32.39;38083.20
1725882752.610;500;32.39;38083.20
1725882752.660;500;32.66;38333.46
1725882752.711;500;33.09;38726.80
1725882752.762;500;33.09;38726.80
1725882752.811;500;35.77;41187.80
1725882752.862;500;28.40;34419.07
1725882752.911;500;28.40;34419.07
1725882752.962;500;30.78;36610.27
1725882753.013;500;32.67;38343.46
1725882753.063;500;32.67;38343.46
1725882753.113;500;32.67;38343.46
1725882753.163;500;32.50;38185.33
1725882753.213;500;32.32;38016.67
1725882753.263;500;32.32;38016.67
1725882753.313;500;32.87;38527.20
1725882753.363;500;33.50;39104.13
1725882753.413;500;33.50;39104.13
1725882753.463;500;33.50;39104.13
1725882753.514;500;34.11;39660.27
1725882753.563;500;31.00;36809.73
1725882753.614;500;31.00;36809.73
1725882753.664;500;31.00;36809.73
1725882753.714;500;32.09;37808.40
1725882753.764;500;35.80;41218.27
1725882753.814;500;35.80;41218.27
1725882753.864;500;35.51;40952.54
1725882753.965;500;32.51;38192.67
1725882754.016;500;32.51;38192.67
1725882754.116;500;36.46;41821.07
1725882754.165;500;36.46;41821.07
1725882754.215;500;36.46;41821.07
1725882754.266;500;31.94;37672.13
1725882754.317;500;31.94;37672.13
1725882754.366;500;31.94;37672.13
1725882754.416;500;28.70;34695.60
1725882754.466;500;32.11;37826.67
1725882754.516;500;32.11;37826.67
1725882754.567;500;32.11;37826.67
1725882754.617;500;33.12;38755.73
1725882754.666;500;30.96;36771.20
1725882754.717;500;30.96;36771.20
1725882754.766;500;33.26;38883.87
1725882754.817;500;33.22;38850.40
1725882754.867;500;30.59;36434.80
1725882754.917;500;30.59;36434.80
1725882754.967;500;28.49;34500.80
1725882755.016;500;32.22;37929.07
1725882755.067;500;32.22;37929.07
1725882755.117;500;32.22;37929.07
1725882755.168;500;32.15;37863.07
1725882755.218;500;34.17;39717.87
1725882755.268;500;34.17;39717.87
1725882755.318;500;29.75;35663.87
1725882755.368;500;32.30;38001.33
1725882755.417;500;32.30;38001.33
1725882755.469;500;32.71;38376.40
1725882755.518;500;36.61;41955.46
1725882766.461;500;29.35;35294.27
1725882766.511;500;29.35;35294.27
1725882766.561;500;29.35;35294.27
1725882766.611;500;31.61;37363.73
1725882766.661;500;33.00;38646.80
1725882766.711;500;33.00;38646.80
1725882766.761;500;30.61;36449.46
1725882766.811;500;31.94;37669.07
1725882766.862;500;31.94;37669.07
1725882766.913;500;31.94;37669.07
1725882766.963;500;29.78;35685.46
1725882767.013;500;29.78;35685.46
1725882767.063;500;29.78;35685.46
1725882767.114;500;32.94;38584.40
1725882767.164;500;33.33;38944.80
1725882767.213;500;33.33;38944.80
1725882767.263;500;32.61;38285.73
1725882767.314;500;32.52;38202.13
1725882767.364;500;32.52;38202.13
1725882767.413;500;32.52;38202.13
1725882767.463;500;30.45;36302.54
1725882767.513;500;30.45;36302.54
1725882767.563;500;30.45;36302.54
1725882767.614;500;31.10;36902.00
1725882767.663;500;35.66;41087.87
1725882767.714;500;35.66;41087.87
1725882767.763;500;35.66;41087.87
1725882767.814;500;33.02;38664.54
1725882767.863;500;33.02;38664.54
1725882767.914;500;33.02;38664.54
1725882767.969;500;33.02;38664.54
1725882768.017;500;32.69;38361.73
1725882768.066;500;32.64;38310.40
1725882768.118;500;32.64;38310.40
1725882768.167;500;32.64;38310.40
1725882768.218;500;32.30;38004.67
1725882768.268;500;36.81;42138.40
1725882768.318;500;36.81;42138.40
1725882768.368;500;35.46;40903.07
1725882768.418;500;31.93;37658.93
1725882768.469;500;31.93;37658.93
1725882768.519;500;31.93;37658.93
1725882768.570;500;31.99;37718.13
1725882768.620;500;32.78;38438.40
1725882768.671;500;32.78;38438.40
1725882768.721;500;32.78;38438.40
1725882768.770;500;28.88;34862.00
1725882768.821;500;28.88;34862.00
1725882768.871;500;28.88;34862.00
1725882768.922;500;35.44;40885.33
1725882768.971;500;33.87;39441.87
1725882769.022;500;33.87;39441.87
1725882769.071;500;33.87;39441.87
1725882769.123;500;29.64;35559.20
1725882769.173;500;33.12;38755.20
1725882769.223;500;33.12;38755.20
1725882769.273;500;33.31;38933.20
1725882769.323;500;32.88;38534.00
1725882769.373;500;32.88;38534.00
1725882769.423;500;32.88;38534.00
1725882769.473;500;33.28;38903.87
1725882769.523;500;33.28;38903.87
1725882769.573;500;33.28;38903.87
1725882769.624;500;35.40;40848.40
1725882769.674;500;32.77;38433.07
1725882769.724;500;32.77;38433.07
1725882769.774;500;32.77;38433.07
1725882769.825;500;32.40;38095.13
1725882769.874;500;33.44;39044.87
1725882769.925;500;33.44;39044.87
1725882769.974;500;32.98;38625.87
1725882770.025;500;34.07;39627.07
1725882770.074;500;34.07;39627.07
1725882770.125;500;34.07;39627.07
1725882770.176;500;34.07;39627.07
1725882770.225;500;32.64;38316.54
1725882770.276;500;33.45;39058.80
1725882770.326;500;33.45;39058.80
1725882770.376;500;33.45;39058.80
1725882770.427;500;32.34;38034.40
1725882770.476;500;30.87;36686.87
1725882770.527;500;30.87;36686.87
1725882770.577;500;30.87;36686.87
1725882770.627;500;33.01;38652.93
1725882770.677;500;32.85;38509.46
1725882770.727;500;32.85;38509.46
1725882770.777;500;32.85;38509.46
1725882770.828;500;34.69;40191.46
1725882902.531;249;40.00;35774.54
1725882902.582;249;40.00;35774.54
1725882902.632;249;40.00;35774.54
1725882902.682;156;40.00;39053.20
1725882902.731;156;40.00;39053.20
1725882902.781;156;40.00;39053.20
1725882902.833;280;40.00;34678.80
1725882902.883;284;40.00;34559.60
1725882902.933;284;40.00;34559.60
1725882902.983;284;40.00;34559.60
1725882903.033;254;40.00;35618.67
1725882903.083;249;40.00;35797.07
1725882903.133;249;40.00;35797.07
1725882903.183;250;40.00;35738.93
1725882903.383;251;40.00;35701.60
1725882903.533;86;40.00;41524.13
1725882903.684;210;40.00;37164.67
1725882903.734;260;40.00;35393.20
1725882903.784;260;40.00;35393.20
1725882903.834;65;40.00;42260.67
1725882903.884;242;40.00;36025.73
1725882903.934;242;40.00;36025.73
1725882903.984;201;40.00;37486.73
1725882904.034;208;40.00;37225.33
1725882904.084;208;40.00;37225.33
1725882904.134;270;40.00;35031.20
1725882904.190;285;40.00;34520.27
1725882904.238;206;40.00;37286.54
1725882904.287;206;40.00;37286.54
1725882904.339;115;40.00;40499.73
1725882904.389;255;40.00;35573.07
1725882904.439;255;40.00;35573.07
1725882904.489;255;40.00;35573.07
1725882904.539;256;40.00;35520.67
1725882904.589;256;40.00;35520.67
1725882904.639;255;40.00;35566.27
1725882904.689;256;40.00;35545.20
1725882904.739;264;40.00;35264.13
1725882904.790;264;40.00;35264.13
1725882904.839;138;40.00;39695.33
1725882904.890;190;40.00;37861.07
1725882904.939;190;40.00;37861.07
1725882904.990;189;40.00;37911.20
1725882905.039;283;40.00;34580.40
1725882905.089;283;40.00;34580.40
1725882905.140;283;40.00;34580.40
1725882905.190;87;40.00;41479.46
1725882905.240;172;40.00;38484.80
1725882905.291;172;40.00;38484.80
1725882905.342;97;40.00;41122.27
1725882905.392;241;40.00;36067.20
1725882905.442;241;40.00;36067.20
1725882905.492;241;40.00;36067.20
1725882905.542;106;40.00;40827.67
1725882905.592;172;40.00;38497.33
1725882905.641;172;40.00;38497.33
1725882905.691;172;40.00;38497.33
1725882905.792;286;40.00;34479.33
1725882905.843;286;40.00;34479.33
1725882905.893;246;40.00;35884.67
1725882905.943;215;40.00;36967.73
1725882905.993;215;40.00;36967.73
1725882906.043;215;40.00;36967.73
1725882906.093;153;40.00;39169.73
1725882906.143;72;40.00;42033.60
1725882906.193;72;40.00;42033.60
1725882906.243;127;40.00;40091.60
1725882906.293;259;40.00;35440.93
1725882906.343;258;40.00;35449.60
1725882906.394;258;40.00;35449.60
1725882906.444;252;40.00;35662.54
1725882906.494;64;40.00;42284.13
1725882906.543;64;40.00;42284.13
1725882906.594;64;40.00;42284.13
1725882906.644;168;40.00;38623.73
1725882906.694;83;40.00;41630.54
1725882906.744;83;40.00;41630.54
1725882906.794;83;40.00;41630.54
1725882906.844;252;40.00;35677.20
1725882906.894;252;40.00;35677.20
1725882906.946;252;40.00;35677.20
1725882906.997;95;40.00;41224.40
1725882917.208;283;40.00;34587.80
1725882917.258;283;40.00;34593.60
1725882917.308;283;40.00;34593.60
1725882917.358;259;40.00;35432.00
1725882917.408;68;40.00;42160.27
1725882917.458;68;40.00;42160.27
1725882917.508;68;40.00;42160.27
1725882917.558;186;40.00;37986.93
1725882917.608;186;40.00;37986.93
1725882917.658;227;40.00;36573.60
1725882917.858;204;40.00;37360.67
1725882917.909;204;40.00;37360.67
1725882917.958;204;40.00;37360.67
1725882918.009;72;40.00;42005.13
1725882918.058;72;40.00;42008.13
1725882918.108;72;40.00;42008.13
1725882918.158;235;40.00;36286.80
1725882918.209;154;40.00;39129.73
1725882918.258;154;40.00;39129.73
1725882918.309;107;40.00;40799.87
1725882918.510;268;40.00;35125.20
1725882918.559;230;40.00;36437.60
1725882918.610;230;40.00;36437.60
1725882918.659;267;40.00;35157.07
1725882918.710;270;40.00;35034.67
1725882918.760;270;40.00;35034.67
1725882918.810;270;40.00;35034.67
1725882918.860;257;40.00;35514.13
1725882918.911;257;40.00;35514.13
1725882918.961;257;40.00;35514.13
1725882919.010;85;40.00;41557.33
1725882919.060;114;40.00;40530.67
1725882919.110;114;40.00;40530.67
1725882919.160;238;40.00;36181.87
1725882919.210;105;40.00;40869.73
1725882919.260;105;40.00;40869.73
1725882919.311;105;40.00;40869.73
1725882919.361;281;40.00;34648.93
1725882919.411;231;40.00;36404.13
1725882919.460;231;40.00;36404.13
1725882919.511;107;40.00;40769.60
1725882919.561;205;40.00;37323.07
1725882919.611;205;40.00;37323.07
1725882919.661;182;40.00;38143.87
1725882919.711;82;40.00;41665.87
1725882919.762;141;40.00;39581.33
1725882919.811;141;40.00;39581.33
1725882919.861;107;40.00;40787.33
1725882919.912;138;40.00;39682.80
1725882919.961;138;40.00;39682.80
1725882920.011;280;40.00;34690.80
1725882920.211;260;40.00;35390.46
1725882920.261;260;40.00;35390.46
1725882920.312;260;40.00;35390.46
1725882920.362;95;40.00;41199.20
1725882920.412;95;40.00;41199.20
1725882920.462;95;40.00;41199.20
1725882920.512;121;40.00;40283.20
1725882920.561;103;40.00;40910.67
1725882920.612;103;40.00;40910.67
1725882920.661;122;40.00;40266.00
1725882920.711;122;40.00;40266.00
1725882920.762;122;40.00;40266.00
1725882920.812;202;40.00;37442.00
1725882920.862;225;40.00;36637.87
1725882920.912;225;40.00;36637.87
1725882920.962;283;40.00;34581.46
1725882921.012;286;40.00;34474.67
1725882921.062;286;40.00;34474.67
1725882921.113;197;40.00;37611.33
1725882921.163;275;40.00;34869.73
1725882921.213;275;40.00;34869.73
1725882921.263;267;40.00;35147.07
1725882921.314;165;40.00;38732.40
1725882921.364;177;40.00;38301.87
1725882921.414;177;40.00;38301.87
1725882921.464;233;40.00;36338.00
1725882921.514;190;40.00;37847.73
1725882931.060;279;40.00;34709.07
1725882931.110;279;40.00;34709.07
1725882931.160;279;40.00;34721.87
1725882931.212;233;40.00;36339.46
1725882931.261;233;40.00;36339.46
1725882931.311;208;40.00;37228.80
1725882931.462;94;40.00;41244.07
1725882931.513;251;40.00;35710.27
1725882931.563;251;40.00;35710.27
1725882931.613;270;40.00;35052.67
1725882931.663;238;40.00;36170.00
1725882931.713;238;40.00;36170.00
1725882931.763;88;40.00;41463.67
1725882931.813;88;40.00;41463.67
1725882931.863;88;40.00;41463.67
1725882931.913;149;40.00;39291.33
1725882931.964;47;40.00;42903.33
1725882932.014;47;40.00;42903.33
1725882932.063;87;40.00;41485.87
1725882932.114;87;40.00;41485.87
1725882932.163;87;40.00;41485.87
1725882932.214;106;40.00;40806.00
1725882932.264;116;40.00;40464.67
1725882932.314;116;40.00;40464.67
1725882932.364;160;40.00;38900.13
1725882932.414;250;40.00;35732.80
1725882932.464;266;40.00;35180.13
1725882932.514;266;40.00;35180.13
1725882932.614;72;40.00;42032.13
1725882932.664;251;40.00;35717.54
1725882932.715;251;40.00;35717.54
1725882932.765;233;40.00;36362.54
1725882932.815;131;40.00;39938.40
1725882932.865;131;40.00;39938.40
1725882932.916;168;40.00;38646.27
1725882932.965;275;40.00;34858.00
1725882933.016;275;40.00;34858.00
1725882933.066;236;40.00;36227.46
1725882933.116;284;40.00;34533.13
1725882933.165;284;40.00;34533.13
1725882933.216;284;40.00;34533.13
1725882933.266;248;40.00;35815.33
1725882933.316;248;40.00;35815.33
1725882933.366;248;40.00;35815.33
1725882933.416;251;40.00;35700.40
1725882933.466;251;40.00;35700.40
1725882933.517;251;40.00;35700.40
1725882933.570;273;40.00;34935.60
1725882933.618;84;40.00;41586.40
1725882933.668;84;40.00;41586.40
1725882933.718;84;40.00;41586.40
1725882933.768;98;40.00;41091.87
1725882933.819;80;40.00;41722.27
1725882933.868;80;40.00;41722.27
1725882933.919;97;40.00;41127.07
1725882933.968;258;40.00;35476.13
1725882934.019;258;40.00;35476.13
1725882934.070;288;40.00;34412.80
1725882934.120;106;40.00;40820.60
1725882934.170;106;40.00;40820.60
1725882934.220;106;40.00;40820.60
1725882934.369;63;40.00;42319.46
1725882934.419;285;40.00;34508.40
1725882934.470;285;40.00;34508.40
1725882934.519;285;40.00;34508.40
1725882934.570;195;40.00;37673.60
1725882934.620;195;40.00;37673.60
1725882934.669;195;40.00;37673.60
1725882934.720;72;40.00;42003.46
1725882934.770;260;40.00;35375.87
1725882934.820;260;40.00;35375.87
1725882934.870;260;40.00;35375.87
1725882934.920;192;40.00;37803.07
1725882934.970;173;40.00;38447.60
1725882935.020;173;40.00;38447.60
1725882935.070;178;40.00;38276.13
1725882935.120;282;40.00;34635.07
1725882935.170;286;40.00;34491.13
1725882935.221;286;40.00;34491.13
1725882935.271;241;40.00;36069.33
1725883039.754;350;28.32;34349.93
1725883039.805;350;28.32;34349.93
1725883039.855;350;28.66;34657.20
1725883039.904;350;29.10;35066.67
1725883039.955;350;29.10;35066.67
1725883040.004;350;29.10;35066.67
1725883040.056;350;35.11;40585.46
1725883040.105;350;37.06;42368.93
1725883040.156;350;37.06;42368.93
1725883040.205;350;37.26;42556.13
1725883040.255;350;29.94;35832.67
1725883040.306;350;29.94;35832.67
1725883040.356;350;29.94;35832.67
1725883040.406;350;36.26;41636.07
1725883040.457;350;35.08;40552.27
1725883040.507;350;35.08;40552.27
1725883040.556;350;35.38;40833.20
1725883040.606;350;30.80;36621.20
1725883040.658;350;30.80;36621.20
1725883040.708;350;30.80;36621.20
1725883040.758;350;36.72;42058.54
1725883040.808;350;36.72;42058.54
1725883040.858;350;36.72;42058.54
1725883040.908;350;36.24;41622.80
1725883040.958;350;36.24;41622.80
1725883041.008;350;36.24;41622.80
1725883041.058;350;30.96;36768.00
1725883041.108;350;30.96;36768.00
1725883041.158;350;30.96;36768.00
1725883041.209;350;30.69;36525.46
1725883041.259;350;30.69;36525.46
1725883041.308;350;30.69;36525.46
1725883041.409;350;33.27;38894.46
1725883041.459;350;33.27;38894.46
1725883041.509;350;33.27;38894.46
1725883041.559;350;36.64;41983.46
1725883041.610;350;36.64;41983.46
1725883041.660;350;36.64;41983.46
1725883041.710;350;29.91;35804.13
1725883041.761;350;35.30;40759.67
1725883041.811;350;35.30;40759.67
1725883041.861;350;35.30;40759.67
1725883041.911;350;30.36;36221.13
1725883041.962;350;28.80;34786.00
1725883042.012;350;28.80;34786.00
1725883042.062;350;36.50;41855.87
1725883042.113;350;36.75;42085.07
1725883042.163;350;36.75;42085.07
1725883042.213;350;36.75;42085.07
1725883042.263;350;33.32;38934.13
1725883042.314;350;34.73;40231.46
1725883042.364;350;34.73;40231.46
1725883042.413;350;34.73;40231.46
1725883042.463;350;31.32;37103.87
1725883042.513;350;31.32;37103.87
1725883042.564;350;31.32;37103.87
1725883042.615;350;35.51;40950.93
1725883042.665;350;36.65;41997.33
1725883042.715;350;36.65;41997.33
1725883042.764;350;36.65;41997.33
1725883042.814;350;30.08;35959.60
1725883042.866;350;35.18;40641.46
1725883042.916;350;35.18;40641.46
1725883042.966;350;35.18;40641.46
1725883043.016;350;28.70;34698.40
1725883043.066;350;29.63;35553.60
1725883043.116;350;29.63;35553.60
1725883043.165;350;29.96;35852.00
1725883043.216;350;30.62;36454.54
1725883043.366;350;29.89;35791.60
1725883043.416;350;29.89;35791.60
1725883043.467;350;29.89;35791.60
1725883043.517;350;30.19;36064.54
1725883043.568;350;29.74;35647.13
1725883043.619;350;29.74;35647.13
1725883043.668;350;28.66;34663.07
1725883043.719;350;30.07;35949.33
1725883043.769;350;30.07;35949.33
1725883043.818;350;30.07;35949.33
1725883043.869;350;30.56;36399.73
1725883043.919;350;30.56;36399.73
1725883043.970;350;30.56;36399.73
1725883044.020;350;30.13;36005.20
1725883044.071;350;29.74;35653.60
1725883044.121;350;29.74;35653.60
1725883044.171;350;29.74;35653.60
1725883044.221;350;30.88;36694.80
1725883054.532;350;28.98;34949.33
1725883054.731;350;29.28;35226.93
1725883054.782;350;29.91;35808.80
1725883054.832;350;29.91;35808.80
1725883054.881;350;31.15;36946.27
1725883054.932;350;32.78;38438.93
1725883054.981;350;32.78;38438.93
1725883055.032;350;31.73;37481.33
1725883055.082;350;32.19;37896.27
1725883055.132;350;32.19;37896.27
1725883055.183;350;29.01;34982.40
1725883055.383;350;30.82;36638.13
1725883055.433;350;30.82;36638.13
1725883055.483;350;30.82;36638.13
1725883055.533;350;29.19;35141.60
1725883055.583;350;29.93;35822.00
1725883055.633;350;29.93;35822.00
1725883055.683;350;29.61;35533.20
1725883055.733;350;30.22;36093.87
1725883055.783;350;36.27;41649.93
1725883055.833;350;36.27;41649.93
1725883055.883;350;33.24;38864.80
1725883055.933;350;30.53;36379.60
1725883055.984;350;30.53;36379.60
1725883056.034;350;30.53;36379.60
1725883056.084;350;33.11;38747.33
1725883056.134;350;31.83;37573.60
1725883056.184;350;31.83;37573.60
1725883056.234;350;31.83;37573.60
1725883056.284;350;35.90;41308.07
1725883056.334;350;35.10;40572.73
1725883056.384;350;35.10;40572.73
1725883056.435;350;35.10;40572.73
1725883056.484;350;35.56;40994.93
1725883056.534;350;35.56;40994.93
1725883056.584;350;35.56;40994.93
1725883056.635;350;35.56;40994.93
1725883056.684;350;30.41;36263.07
1725883056.734;350;29.62;35536.73
1725883056.784;350;29.62;35536.73
1725883056.834;350;29.62;35536.73
1725883056.884;350;28.94;34918.07
1725883056.935;350;36.66;42001.07
1725883056.985;350;36.66;42001.07
1725883057.035;350;36.66;42001.07
1725883057.085;350;32.86;38512.80
1725883057.135;350;32.49;38173.33
1725883057.185;350;32.49;38173.33
1725883057.235;350;29.98;35869.07
1725883057.385;350;28.84;34822.80
1725883057.585;350;30.11;35990.27
1725883057.636;350;30.11;35990.27
1725883057.685;350;30.11;35990.27
1725883057.736;350;29.89;35791.33
1725883057.785;350;29.89;35791.33
1725883057.836;350;29.89;35791.33
1725883057.886;350;31.39;37164.93
1725883057.935;350;32.71;38379.67
1725883057.986;350;33.77;39348.40
1725883058.035;350;33.77;39348.40
1725883058.086;350;34.34;39875.87
1725883058.137;350;35.69;41118.27
1725883058.187;350;35.69;41118.27
1725883058.237;350;35.69;41118.27
1725883058.287;350;31.60;37355.20
1725883058.337;350;32.55;38233.67
1725883058.387;350;32.55;38233.67
1725883058.438;350;32.55;38233.67
1725883058.487;350;31.11;36912.40
1725883058.538;350;33.21;38833.46
1725883058.588;350;33.21;38833.46
1725883058.637;350;33.21;38833.46
1725883058.688;350;30.28;36146.54
1725883058.738;350;30.28;36146.54
1725883058.788;350;30.28;36146.54
1725883058.838;350;30.18;36053.73
1725883058.888;350;36.24;41622.54
1725883058.938;350;36.24;41622.54
1725883058.988;350;36.24;41622.54
1725883059.038;350;32.09;37810.00
1725883070.127;350;29.16;35118.27
1725883070.178;350;29.01;34977.87
1725883070.227;350;29.01;34977.87
1725883070.277;350;31.06;36866.13
1725883070.327;350;31.06;36866.13
1725883070.377;350;31.06;36866.13
1725883070.428;350;29.11;35072.13
1725883070.477;350;29.38;35323.07
1725883070.528;350;29.38;35323.07
1725883070.577;350;36.27;41646.93
1725883070.629;350;35.26;40714.93
1725883070.679;350;35.26;40714.93
1725883070.729;350;35.26;40714.93
1725883070.779;350;36.12;41511.00
1725883070.829;350;36.19;41568.46
1725883070.879;350;36.19;41568.46
1725883070.930;350;29.08;35048.27
1725883070.979;350;36.41;41776.80
1725883071.030;350;36.41;41776.80
1725883071.079;350;30.79;36611.87
1725883071.131;350;29.83;35734.67
1725883071.181;350;29.83;35734.67
1725883071.231;350;29.83;35734.67
1725883071.280;350;32.65;38322.40
1725883071.331;350;31.47;37235.07
1725883071.380;350;31.47;37235.07
1725883071.431;350;36.56;41910.80
1725883071.481;350;30.87;36689.60
1725883071.531;350;30.87;36689.60
1725883071.580;350;29.92;35814.93
1725883071.631;350;30.89;36704.40
1725883071.680;350;30.89;36704.40
1725883071.731;350;30.89;36704.40
1725883071.781;350;36.32;41693.60
1725883071.831;350;33.57;39167.07
1725883071.881;350;33.57;39167.07
1725883071.931;350;33.57;39167.07
1725883071.981;350;31.46;37226.54
1725883072.031;350;33.51;39108.13
1725883072.081;350;33.51;39108.13
1725883072.131;350;36.66;42001.46
1725883072.180;350;34.62;40133.46
1725883072.231;350;34.62;40133.46
1725883072.280;350;36.70;42041.07
1725883072.331;350;30.70;36528.93
1725883072.380;350;30.70;36528.93
1725883072.431;350;30.41;36263.27
1725883072.480;350;30.51;36358.00
1725883072.531;350;30.51;36358.00
1725883072.581;350;32.21;37919.07
1725883072.631;350;36.54;41890.40
1725883072.681;350;35.92;41320.93
1725883072.731;350;35.92;41320.93
1725883072.780;350;33.35;38963.00
1725883072.831;350;33.35;38963.00
1725883072.880;350;33.35;38963.00
1725883072.931;350;29.84;35743.73
1725883072.981;350;29.84;35743.73
1725883073.031;350;29.84;35743.73
1725883073.131;350;30.63;36465.33
1725883073.181;350;30.63;36465.33
1725883073.231;350;36.15;41533.67
1725883073.281;350;34.84;40330.27
1725883073.332;350;34.84;40330.27
1725883073.381;350;34.84;40330.27
1725883073.432;350;31.14;36936.67
1725883073.481;350;35.83;41245.46
1725883073.532;350;35.83;41245.46
1725883073.581;350;35.83;41245.46
1725883073.632;350;30.84;36656.93
1725883073.681;350;29.97;35857.73
1725883073.731;350;29.97;35857.73
1725883073.781;350;29.97;35857.73
1725883073.832;350;31.24;37024.67
1725883073.881;350;30.79;36615.46
1725883073.932;350;30.79;36615.46
1725883073.982;350;30.79;36615.46
1725883074.033;350;30.62;36460.87
1725883074.083;350;30.26;36130.54
1725883074.133;350;30.26;36130.54
1725883074.183;350;30.26;36130.54
1725883074.233;350;28.47;34483.33
1725883074.283;350;35.58;41011.73
1725883074.334;350;35.58;41011.73
1725883074.384;350;35.58;41011.73
1725883074.434;350;29.99;35883.73
1725883181.124;50;28.58;34586.54
1725883181.174;50;28.58;34586.54
1725883181.224;50;28.58;34586.54
1725883181.275;50;31.54;37305.46
1725883181.325;50;32.01;37731.20
1725883181.376;50;32.01;37731.20
1725883181.426;50;31.18;36972.87
1725883181.477;50;30.10;35981.33
1725883181.526;50;30.10;35981.33
1725883181.576;50;30.10;35981.33
1725883181.626;50;30.49;36340.93
1725883181.676;50;30.49;36340.93
1725883181.726;50;31.78;37525.07
1725883181.777;50;30.88;36693.20
1725883181.827;50;31.38;37153.60
1725883181.877;50;31.38;37153.60
1725883181.928;50;34.32;39851.33
1725883181.978;50;33.56;39155.20
1725883182.028;50;33.56;39155.20
1725883182.079;50;33.56;39155.20
1725883182.129;50;35.20;40665.73
1725883182.179;50;33.20;38829.00
1725883182.228;50;33.20;38829.00
1725883182.278;50;33.20;38829.00
1725883182.329;50;31.19;36978.40
1725883182.379;50;28.65;34647.46
1725883182.428;50;28.65;34647.46
1725883182.478;50;28.65;34647.46
1725883182.528;50;29.28;35224.33
1725883182.579;50;29.28;35224.33
1725883182.629;50;29.28;35224.33
1725883182.679;50;30.30;36165.60
1725883182.729;50;30.30;36165.60
1725883182.780;50;30.30;36165.60
1725883182.830;50;30.87;36691.87
1725883182.880;50;30.87;36691.87
1725883182.930;50;30.87;36691.87
1725883182.980;50;28.95;34921.33
1725883183.030;50;28.68;34677.87
1725883183.080;50;28.68;34677.87
1725883183.187;50;34.02;39579.20
1725883183.234;50;34.02;39579.20
1725883183.284;50;34.02;39579.20
1725883183.334;50;31.61;37371.27
1725883183.384;50;31.93;37660.27
1725883183.434;50;31.93;37660.27
1725883183.485;50;32.27;37972.40
1725883183.535;50;33.06;38699.80
1725883183.585;50;33.06;38699.80
1725883183.635;50;33.06;38699.80
1725883183.686;50;33.06;38699.80
1725883183.735;50;29.13;35090.33
1725883183.785;50;29.13;35090.33
1725883183.835;50;29.13;35090.33
1725883183.886;50;30.29;36155.60
1725883183.936;50;32.09;37812.13
1725883183.986;50;32.09;37812.13
1725883184.036;50;33.05;38687.60
1725883184.086;50;33.02;38666.80
1725883184.136;50;31.05;36855.07
1725883184.186;50;31.05;36855.07
1725883184.236;50;31.80;37540.80
1725883184.437;50;34.61;40126.67
1725883184.488;50;29.70;35614.40
1725883184.537;50;28.39;34413.87
1725883184.588;50;28.39;34413.87
1725883184.638;50;32.06;37784.27
1725883184.688;50;33.66;39247.07
1725883184.738;50;33.66;39247.07
1725883184.787;50;33.66;39247.07
1725883184.837;50;33.64;39230.54
1725883184.888;50;30.12;35997.46
1725883184.939;50;30.12;35997.46
1725883184.989;50;30.12;35997.46
1725883185.039;50;32.09;37809.20
1725883185.089;50;32.62;38294.67
1725883185.140;50;32.62;38294.67
1725883185.189;50;32.04;37766.00
1725883185.240;50;29.49;35420.27
1725883185.289;50;29.49;35420.27
1725883185.339;50;29.49;35420.27
1725883185.390;50;33.65;39239.20
1725883196.457;50;28.54;34552.46
1725883196.508;50;28.54;34552.46
1725883196.558;50;28.54;34552.46
1725883196.608;50;28.72;34711.87
1725883196.658;50;28.72;34711.87
1725883196.707;50;28.72;34711.87
1725883196.759;50;31.80;37541.07
1725883196.809;50;33.12;38749.73
1725883196.860;50;33.12;38749.73
1725883196.909;50;33.12;38749.73
1725883196.959;50;32.79;38448.67
1725883197.009;50;32.79;38448.67
1725883197.059;50;32.79;38448.67
1725883197.109;50;31.04;36843.80
1725883197.159;50;32.97;38620.54
1725883197.210;50;32.97;38620.54
1725883197.260;50;32.97;38620.54
1725883197.310;50;29.38;35318.54
1725883197.360;50;30.92;36734.80
1725883197.410;50;30.92;36734.80
1725883197.460;50;30.92;36734.80
1725883197.510;50;33.71;39297.40
1725883197.560;50;28.81;34801.20
1725883197.611;50;28.81;34801.20
1725883197.660;50;28.81;34801.20
1725883197.710;50;36.06;41452.67
1725883197.760;50;36.06;41452.67
1725883197.810;50;36.06;41452.67
1725883197.860;50;36.06;41452.67
1725883197.910;50;32.00;37729.46
1725883197.960;50;30.07;35949.87
1725883198.011;50;30.07;35949.87
1725883198.061;50;30.07;35949.87
1725883198.111;50;32.43;38119.46
1725883198.160;50;29.79;35701.00
1725883198.211;50;29.79;35701.00
1725883198.260;50;30.58;36423.60
1725883198.310;50;34.88;40374.27
1725883198.360;50;34.88;40374.27
1725883198.411;50;34.88;40374.27
1725883198.461;50;29.25;35200.87
1725883198.510;50;33.14;38774.80
1725883198.561;50;33.14;38774.80
1725883198.610;50;33.14;38774.80
1725883198.661;50;34.56;40078.27
1725883198.711;50;34.81;40308.13
1725883198.761;50;34.81;40308.13
1725883198.810;50;30.86;36682.54
1725883198.861;50;32.36;38054.80
1725883198.911;50;32.36;38054.80
1725883198.960;50;32.36;38054.80
1725883199.011;50;36.64;41990.54
1725883199.060;50;34.77;40265.46
1725883199.110;50;34.77;40265.46
1725883199.161;50;33.93;39499.93
1725883199.211;50;34.05;39611.46
1725883199.261;50;34.05;39611.46
1725883199.311;50;34.05;39611.46
1725883199.361;50;32.81;38470.87
1725883199.411;50;31.85;37586.67
1725883199.462;50;31.85;37586.67
1725883199.512;50;31.85;37586.67
1725883199.562;50;31.81;37552.67
1725883199.611;50;35.35;40799.46
1725883199.661;50;35.35;40799.46
1725883199.712;50;35.35;40799.46
1725883199.762;50;31.66;37414.27
1725883199.811;50;31.66;37414.27
1725883199.861;50;31.66;37414.27
1725883199.912;50;31.66;37414.27
1725883199.961;50;30.09;35973.60
1725883200.012;50;30.09;35973.60
1725883200.063;50;30.09;35973.60
1725883200.113;50;30.09;35973.60
1725883200.163;50;29.23;35184.27
1725883200.213;50;33.93;39498.80
1725883200.263;50;31.42;37188.80
1725883200.314;50;31.42;37188.80
1725883200.364;50;31.61;37369.87
1725883200.414;50;33.86;39433.33
1725883200.464;50;31.19;36984.54
1725883200.514;50;31.19;36984.54
1725883200.565;50;29.58;35508.60
1725883200.614;50;32.60;38273.33
1725883200.665;50;32.60;38273.33
1725883200.715;50;32.60;38273.33
1725883200.765;50;32.52;38206.54
1725883200.815;50;32.52;38206.54
1725883200.865;50;32.52;38206.54
1725883200.914;50;33.82;39395.87
1725883200.965;50;33.82;39395.87
1725883201.015;50;33.82;39395.87
1725883201.065;50;32.89;38541.93
1725883201.115;50;32.89;38541.93
1725883201.166;50;32.89;38541.93
1725883201.216;50;32.85;38505.87
1725883201.266;50;33.23;38856.13
1725883201.315;50;33.23;38856.13
1725883201.366;50;32.47;38155.87
1725883212.406;50;29.52;35451.07
1725883212.456;50;29.52;35451.07
1725883212.506;50;29.52;35451.07
1725883212.556;50;31.86;37593.60
1725883212.606;50;34.69;40191.60
1725883212.656;50;34.69;40191.60
1725883212.706;50;36.00;41397.20
1725883212.756;50;28.71;34704.13
1725883212.806;50;28.71;34704.13
1725883212.856;50;28.71;34704.13
1725883212.906;50;34.61;40120.80
1725883212.956;50;35.41;40860.54
1725883213.007;50;35.41;40860.54
1725883213.056;50;34.00;39559.07
1725883213.107;50;31.77;37518.13
1725883213.156;50;31.77;37518.13
1725883213.207;50;31.77;37518.13
1725883213.257;50;30.64;36476.67
1725883213.307;50;30.64;36476.67
1725883213.356;50;30.64;36476.67
1725883213.407;50;34.21;39754.13
1725883213.457;50;31.43;37206.60
1725883213.507;50;31.43;37206.60
1725883213.557;50;33.58;39172.93
1725883213.607;50;31.90;37637.73
1725883213.677;50;31.90;37637.73
1725883213.707;50;31.90;37637.73
1725883213.757;50;31.90;37637.73
1725883213.807;50;31.90;37637.73
1725883213.859;50;34.01;39572.54
1725883213.907;50;29.29;35235.73
1725883213.957;50;32.65;38318.80
1725883214.007;50;32.65;38318.80
1725883214.057;50;33.38;38993.33
1725883214.108;50;33.20;38830.67
1725883214.158;50;28.79;34779.46
1725883214.209;50;28.79;34779.46
1725883214.259;50;29.24;35193.20
1725883214.309;50;29.15;35111.60
1725883214.359;50;29.15;35111.60
1725883214.409;50;29.72;35628.67
1725883214.458;50;31.11;36910.27
1725883214.509;50;31.11;36910.27
1725883214.609;50;29.22;35169.60
1725883214.660;50;29.22;35169.60
1725883214.710;50;30.64;36479.73
1725883214.760;50;30.61;36449.93
1725883214.810;50;30.61;36449.93
1725883214.860;50;28.76;34749.20
1725883214.910;50;31.53;37291.20
1725883214.960;50;31.53;37291.20
1725883215.010;50;31.53;37291.20
1725883215.061;50;28.92;34901.07
1725883215.111;50;28.92;34901.07
1725883215.160;50;28.92;34901.07
1725883215.210;50;32.39;38080.13
1725883215.260;50;32.14;37857.46
1725883215.310;50;32.14;37857.46
1725883215.360;50;32.14;37857.46
1725883215.411;50;32.33;38029.73
1725883215.461;50;31.64;37394.54
1725883215.511;50;31.64;37394.54
1725883215.561;50;29.99;35877.60
1725883215.611;50;30.25;36117.46
1725883215.661;50;28.59;34590.93
1725883215.711;50;28.59;34590.93
1725883215.762;50;30.49;36342.67
1725883215.813;50;30.11;35993.20
1725883215.863;50;30.11;35993.20
1725883215.913;50;30.11;35993.20
1725883215.963;50;32.79;38448.67
1725883216.013;50;32.79;38448.67
1725883216.063;50;32.79;38448.67
1725883216.113;50;30.12;36000.27
1725883216.163;50;29.18;35137.46
1725883216.213;50;29.18;35137.46
1725883216.263;50;29.17;35124.80
1725883216.313;50;31.88;37620.13
1725883216.363;50;31.99;37720.27
1725883216.413;50;31.99;37720.27
1725883216.464;50;33.08;38719.33
1725883216.514;50;30.46;36314.40
1725883216.563;50;30.46;36314.40
1725883216.614;50;30.46;36314.40
1725883216.664;50;29.30;35250.54
1725883216.714;50;30.57;36412.54
1725883216.764;50;31.50;37262.93
1725883216.814;50;31.50;37262.93
1725883216.864;50;30.93;36741.87
1725883216.914;50;30.21;36085.33
1725883216.964;50;32.86;38516.27
1725883217.014;50;32.86;38516.27
1725883217.064;50;31.60;37356.27
1725883217.114;50;32.70;38364.87
1725883347.968;200;30.33;36193.20
1725883348.018;200;30.33;36193.20
1725883348.068;200;30.33;36193.20
1725883348.117;200;29.95;35844.13
1725883348.168;200;32.23;37932.80
1725883348.218;200;32.23;37932.80
1725883348.268;200;32.23;37932.80
1725883348.318;200;32.82;38480.67
1725883348.368;200;36.84;42174.13
1725883348.419;200;36.84;42174.13
1725883348.469;200;36.84;42174.13
1725883348.519;200;37.49;42764.67
1725883348.569;200;36.67;42011.87
1725883348.620;200;36.67;42011.87
1725883348.669;200;36.67;42011.87
1725883348.720;200;28.98;34951.33
1725883348.769;200;28.98;34951.33
1725883348.820;200;28.98;34951.33
1725883348.870;200;32.90;38555.60
1725883348.919;200;30.91;36724.80
1725883348.970;200;30.91;36724.80
1725883349.019;200;30.91;36724.80
1725883349.070;200;28.70;34696.27
1725883349.119;200;28.70;34696.27
1725883349.169;200;28.70;34696.27
1725883349.221;200;35.32;40770.67
1725883349.269;200;29.70;35614.54
1725883349.320;200;29.70;35614.54
1725883349.369;200;29.70;35614.54
1725883349.421;200;29.35;35296.93
1725883349.471;200;30.35;36210.13
1725883349.520;200;30.35;36210.13
1725883349.571;200;29.43;35362.93
1725883349.620;200;30.77;36600.40
1725883349.671;200;30.77;36600.40
1725883349.721;200;30.77;36600.40
1725883349.771;200;29.72;35631.87
1725883349.821;200;30.00;35893.20
1725883349.871;200;30.00;35893.20
1725883349.920;200;30.83;36655.33
1725883349.971;200;30.83;36655.33
1725883350.021;200;30.83;36655.33
1725883350.071;200;37.02;42336.33
1725883350.122;200;36.02;41419.46
1725883350.172;200;36.02;41419.46
1725883350.222;200;37.55;42817.13
1725883350.272;200;37.55;42817.13
1725883350.321;200;37.55;42817.13
1725883350.371;200;33.46;39064.60
1725883350.421;200;29.92;35816.54
1725883350.471;200;30.67;36506.27
1725883350.522;200;30.67;36506.27
1725883350.571;200;30.67;36506.27
1725883350.622;200;32.41;38102.67
1725883350.671;200;32.41;38102.67
1725883350.721;200;32.41;38102.67
1725883350.771;200;34.00;39560.73
1725883350.823;200;34.49;40014.67
1725883350.872;200;34.49;40014.67
1725883350.923;200;29.36;35302.27
1725883350.973;200;36.17;41555.54
1725883351.023;200;36.17;41555.54
1725883351.073;200;36.17;41555.54
1725883351.123;200;29.91;35808.54
1725883351.173;200;30.26;36125.60
1725883351.223;200;30.26;36125.60
1725883351.273;200;30.26;36125.60
1725883351.323;200;30.00;35885.07
1725883351.373;200;29.86;35764.54
1725883351.423;200;29.86;35764.54
1725883351.473;200;31.31;37091.54
1725883351.523;200;31.24;37028.80
1725883351.574;200;31.24;37028.80
1725883351.624;200;31.24;37028.80
1725883351.674;200;29.20;35158.67
1725883351.724;200;35.84;41252.73
1725883351.773;200;35.84;41252.73
1725883351.824;200;35.84;41252.73
1725883351.874;200;29.85;35751.33
1725883351.924;200;34.03;39588.13
1725883351.973;200;34.03;39588.13
1725883352.024;200;30.56;36400.27
1725883352.074;200;32.98;38625.54
1725883352.124;200;32.98;38625.54
1725883352.174;200;32.98;38625.54
1725883352.224;200;31.06;36862.13
1725883352.274;200;31.06;36862.13
1725883352.324;200;31.06;36862.13
1725883352.374;200;30.29;36154.27
1725883352.424;200;30.29;36154.27
1725883352.475;200;30.29;36154.27
1725883352.524;200;28.64;34636.93
1725883362.703;200;28.65;34648.93
1725883362.753;200;28.65;34648.93
1725883362.803;200;28.65;34648.93
1725883362.853;200;28.33;34357.07
1725883362.903;200;30.52;36370.00
1725883362.953;200;30.52;36370.00
1725883363.003;200;30.72;36547.73
1725883363.054;200;28.38;34401.60
1725883363.204;200;33.10;38731.33
1725883363.354;200;28.38;34402.00
1725883363.404;200;28.88;34859.73
1725883363.454;200;28.88;34859.73
1725883363.504;200;32.12;37832.40
1725883363.554;200;30.16;36033.87
1725883363.604;200;30.16;36033.87
1725883363.654;200;30.16;36033.87
1725883363.704;200;30.33;36189.73
1725883363.754;200;30.33;36189.73
1725883363.804;200;30.33;36189.73
1725883363.854;200;35.25;40712.40
1725883363.904;200;28.52;34529.13
1725883363.955;200;28.52;34529.13
1725883364.005;200;28.52;34529.13
1725883364.055;200;29.13;35088.54
1725883364.105;200;34.98;40464.27
1725883364.154;200;34.98;40464.27
1725883364.204;200;29.63;35553.60
1725883364.254;200;36.69;42029.80
1725883364.304;200;36.69;42029.80
1725883364.355;200;36.69;42029.80
1725883364.405;200;29.28;35224.13
1725883364.454;200;29.28;35224.13
1725883364.504;200;29.28;35224.13
1725883364.555;200;33.94;39506.54
1725883364.605;200;37.08;42391.20
1725883364.654;200;37.08;42391.20
1725883364.704;200;36.82;42152.00
1725883364.755;200;30.04;35929.33
1725883364.805;200;30.04;35929.33
1725883364.854;200;30.04;35929.33
1725883364.906;200;29.09;35050.00
1725883364.956;200;36.93;42254.80
1725883365.006;200;29.83;35732.13
1725883365.057;200;29.83;35732.13
1725883365.106;200;29.89;35786.27
1725883365.156;200;28.59;34599.07
1725883365.206;200;29.15;35109.73
1725883365.256;200;29.15;35109.73
1725883365.306;200;29.70;35609.60
1725883365.357;200;29.64;35555.60
1725883365.406;200;29.64;35555.60
1725883365.457;200;29.64;35555.60
1725883365.657;200;33.41;39020.67
1725883365.706;200;29.81;35714.67
1725883365.757;200;29.81;35714.67
1725883365.806;200;30.38;36235.87
1725883365.857;200;36.47;41832.40
1725883365.907;200;34.36;39892.93
1725883365.957;200;34.36;39892.93
1725883366.008;200;28.46;34476.33
1725883366.057;200;29.32;35264.40
1725883366.207;200;29.15;35109.33
1725883366.259;200;30.56;36401.20
1725883366.309;200;30.56;36401.20
1725883366.359;200;33.62;39213.20
1725883366.408;200;28.56;34566.93
1725883366.458;200;28.56;34566.93
1725883366.508;200;35.96;41362.54
1725883366.558;200;31.08;36876.93
1725883366.609;200;31.08;36876.93
1725883366.659;200;31.08;36876.93
1725883366.708;200;29.31;35256.40
1725883366.758;200;29.31;35256.40
1725883366.809;200;29.31;35256.40
1725883366.859;200;29.97;35865.07
1725883366.909;200;29.67;35586.93
1725883366.959;200;29.67;35586.93
1725883367.009;200;30.09;35972.00
1725883367.060;200;32.71;38381.46
1725883367.111;200;32.71;38381.46
1725883367.161;200;33.03;38674.27
1725883378.276;200;30.75;36580.13
1725883378.327;200;29.47;35405.87
1725883378.377;200;29.47;35405.87
1725883378.427;200;31.43;37198.54
1725883378.477;200;37.20;42501.07
1725883378.528;200;37.20;42501.07
1725883378.577;200;37.20;42501.07
1725883378.627;200;37.44;42722.40
1725883378.677;200;36.96;42277.60
1725883378.728;200;36.96;42277.60
1725883378.779;200;31.54;37307.07
1725883378.829;200;29.70;35610.67
1725883378.878;200;29.70;35610.67
1725883378.930;200;29.51;35442.33
1725883378.979;200;29.51;35442.33
1725883379.029;200;29.51;35442.33
1725883379.079;200;30.76;36589.46
1725883379.130;200;31.72;37473.33
1725883379.181;200;31.72;37473.33
1725883379.231;200;30.30;36161.73
1725883379.281;200;28.77;34758.13
1725883379.331;200;28.77;34758.13
1725883379.381;200;28.77;34758.13
1725883379.433;200;31.88;37611.60
1725883379.481;200;34.64;40145.46
1725883379.533;200;34.64;40145.46
1725883379.583;200;34.64;40145.46
1725883379.632;200;33.80;39382.07
1725883379.683;200;33.80;39382.07
1725883379.733;200;33.80;39382.07
1725883379.783;200;32.69;38363.33
1725883379.833;200;30.39;36244.20
1725883379.883;200;30.39;36244.20
1725883379.933;200;30.39;36244.20
1725883379.983;200;36.30;41677.07
1725883380.033;200;33.86;39435.20
1725883380.083;200;33.86;39435.20
1725883380.133;200;33.50;39103.46
1725883380.183;200;32.88;38533.07
1725883380.233;200;32.88;38533.07
1725883380.283;200;31.69;37438.67
1725883380.333;200;30.28;36150.60
1725883380.383;200;30.28;36150.60
1725883380.433;200;30.28;36150.60
1725883380.483;200;34.99;40469.46
1725883380.533;200;36.63;41979.87
1725883380.583;200;36.63;41979.87
1725883380.633;200;33.15;38780.93
1725883380.683;200;36.21;41587.46
1725883380.733;200;33.08;38718.40
1725883380.783;200;33.08;38718.40
1725883380.833;200;31.89;37628.00
1725883380.883;200;31.82;37559.40
1725883380.933;200;29.88;35782.07
1725883380.984;200;29.88;35782.07
1725883381.033;200;36.64;41982.13
1725883381.083;200;32.34;38033.60
1725883381.133;200;32.34;38033.60
1725883381.184;200;32.34;38033.60
1725883381.234;200;28.99;34958.13
1725883381.283;200;28.77;34760.54
1725883381.333;200;28.77;34760.54
1725883381.384;200;33.50;39099.73
1725883381.434;200;32.09;37810.67
1725883381.483;200;32.09;37810.67
1725883381.533;200;30.26;36125.33
1725883381.584;200;32.67;38338.60
1725883381.633;200;32.67;38338.60
1725883381.683;200;32.67;38338.60
1725883381.733;200;32.92;38566.40
1725883381.784;200;31.98;37703.87
1725883381.834;200;31.98;37703.87
1725883381.884;200;36.48;41841.07
1725883381.934;200;36.48;41841.07
1725883381.984;200;36.48;41841.07
1725883382.034;200;34.93;40416.67
1725883382.085;200;34.74;40243.46
1725883382.135;200;34.74;40243.46
1725883382.185;200;34.74;40243.46
1725883382.236;200;29.34;35280.40
1725883382.286;200;29.34;35280.40
1725883382.336;200;29.34;35280.40
1725883382.386;200;29.67;35583.13
1725883382.435;200;34.98;40464.87
1725883382.486;200;34.98;40464.87
1725883382.536;200;34.98;40464.87
1725883382.587;200;29.26;35208.27
1725883642.393;280;30.00;34700.40
1725883642.444;280;30.00;34700.40
1725883642.493;218;30.00;36876.67
1725883642.544;65;30.00;42260.93
1725883642.595;65;30.00;42260.93
1725883642.644;125;30.00;40134.93
1725883642.694;226;30.00;36588.54
1725883642.744;226;30.00;36588.54
1725883642.794;226;30.00;36588.54
1725883642.844;286;30.00;34490.40
1725883642.994;286;30.00;34470.46
1725883643.045;285;30.00;34516.00
1725883643.095;258;30.00;35448.40
1725883643.145;258;30.00;35448.40
1725883643.195;195;30.00;37675.13
1725883643.245;284;30.00;34563.87
1725883643.295;254;30.00;35613.46
1725883643.345;254;30.00;35613.46
1725883643.396;249;30.00;35782.67
1725883643.445;211;30.00;37104.93
1725883643.645;271;30.00;34993.46
1725883643.696;172;30.00;38492.67
1725883643.746;172;30.00;38492.67
1725883643.796;172;30.00;38492.67
1725883643.846;197;30.00;37613.20
1725883644.047;274;30.00;34908.67
1725883644.097;238;30.00;36167.73
1725883644.146;238;30.00;36167.73
1725883644.196;238;30.00;36167.73
1725883644.247;106;30.00;40837.20
1725883644.298;124;30.00;40180.54
1725883644.348;124;30.00;40180.54
1725883644.397;247;30.00;35844.93
1725883644.448;250;30.00;35752.87
1725883644.497;250;30.00;35752.87
1725883644.548;169;30.00;38598.80
1725883644.598;252;30.00;35677.00
1725883644.648;252;30.00;35677.00
1725883644.698;252;30.00;35677.00
1725883644.748;210;30.00;37140.27
1725883644.798;199;30.00;37559.87
1725883644.848;199;30.00;37559.87
1725883644.899;199;30.00;37559.87
1725883644.949;155;30.00;39090.13
1725883644.999;273;30.00;34940.93
1725883645.049;273;30.00;34940.93
1725883645.099;273;30.00;34940.93
1725883645.149;168;30.00;38630.93
1725883645.199;270;30.00;35044.27
1725883645.249;270;30.00;35044.27
1725883645.299;289;30.00;34356.46
1725883645.349;120;30.00;40319.60
1725883645.399;135;30.00;39791.87
1725883645.450;135;30.00;39791.87
1725883645.499;261;30.00;35373.07
1725883645.549;225;30.00;36620.13
1725883645.599;225;30.00;36620.13
1725883645.650;218;30.00;36876.54
1725883645.850;274;30.00;34882.67
1725883645.900;259;30.00;35422.80
1725883645.950;259;30.00;35422.80
1725883646.001;275;30.00;34850.80
1725883646.052;77;30.00;41830.87
1725883646.103;138;30.00;39701.60
1725883646.153;138;30.00;39701.60
1725883646.203;206;30.00;37294.80
1725883646.253;122;30.00;40256.46
1725883646.303;195;30.00;37691.33
1725883646.353;195;30.00;37691.33
1725883646.403;195;30.00;37691.33
1725883646.454;206;30.00;37280.93
1725883646.504;118;30.00;40394.20
1725883646.554;118;30.00;40394.20
1725883646.604;118;30.00;40394.20
1725883646.655;248;30.00;35805.46
1725883646.704;127;30.00;40092.60
1725883646.755;127;30.00;40092.60
1725883646.805;127;30.00;40092.60
1725883646.855;266;30.00;35195.73
1725883646.905;266;30.00;35195.73
1725883646.955;266;30.00;35195.73
1725883647.004;219;30.00;36846.40
1725883647.055;242;30.00;36045.07
1725883647.105;248;30.00;35826.40
1725883647.155;248;30.00;35826.40
1725883647.205;248;30.00;35826.40
1725883647.255;277;30.00;34790.93
1725883658.594;272;30.00;34965.46
1725883658.643;272;30.00;34965.46
1725883658.693;272;30.00;34965.46
1725883658.744;104;30.00;40890.07
1725883658.793;98;30.00;41105.87
1725883658.843;98;30.00;41105.87
1725883658.894;98;30.00;41105.87
1725883658.944;225;30.00;36619.80
1725883658.994;225;30.00;36619.80
1725883659.043;225;30.00;36619.80
1725883659.094;78;30.00;41801.73
1725883659.144;88;30.00;41466.67
1725883659.195;88;30.00;41466.67
1725883659.245;198;30.00;37581.33
1725883659.296;232;30.00;36387.20
1725883659.346;232;30.00;36387.20
1725883659.396;232;30.00;36387.20
1725883659.446;155;30.00;39111.20
1725883659.496;121;30.00;40297.46
1725883659.546;121;30.00;40297.46
1725883659.596;61;30.00;42399.73
1725883659.646;230;30.00;36447.87
1725883659.696;230;30.00;36447.87
1725883659.746;230;30.00;36447.87
1725883659.795;64;30.00;42312.33
1725883659.847;64;30.00;42312.33
1725883659.897;64;30.00;42312.33
1725883659.947;116;30.00;40485.46
1725883659.996;116;30.00;40485.46
1725883660.046;116;30.00;40485.46
1725883660.096;236;30.00;36234.93
1725883660.146;78;30.00;41813.07
1725883660.197;78;30.00;41813.07
1725883660.247;114;30.00;40534.80
1725883660.296;145;30.00;39446.80
1725883660.347;145;30.00;39446.80
1725883660.398;145;30.00;39446.80
1725883660.449;255;30.00;35584.67
1725883660.498;255;30.00;35584.67
1725883660.548;255;30.00;35584.67
1725883660.598;86;30.00;41519.54
1725883660.648;64;30.00;42315.87
1725883660.698;64;30.00;42315.87
1725883660.748;64;30.00;42315.87
1725883660.798;286;30.00;34473.73
1725883660.849;136;30.00;39779.60
1725883660.898;136;30.00;39779.60
1725883660.948;136;30.00;39779.60
1725883660.998;285;30.00;34526.67
1725883661.049;227;30.00;36560.27
1725883661.099;227;30.00;36560.27
1725883661.149;174;30.00;38406.67
1725883661.198;254;30.00;35592.93
1725883661.248;254;30.00;35592.93
1725883661.299;254;30.00;35592.93
1725883661.349;116;30.00;40461.46
1725883661.398;110;30.00;40671.93
1725883661.449;110;30.00;40671.93
1725883661.498;160;30.00;38934.87
1725883661.549;63;30.00;42349.07
1725883661.599;63;30.00;42349.07
1725883661.650;63;30.00;42349.07
1725883661.699;217;30.00;36920.27
1725883661.751;172;30.00;38484.13
1725883661.801;172;30.00;38484.13
1725883661.851;123;30.00;40233.07
1725883661.906;248;30.00;35812.46
1725883661.953;229;30.00;36481.93
1725883662.003;229;30.00;36481.93
1725883662.053;113;30.00;40588.93
1725883662.102;272;30.00;34982.93
1725883662.153;272;30.00;34982.93
1725883662.202;272;30.00;34982.93
1725883662.252;164;30.00;38760.20
1725883662.303;164;30.00;38760.20
1725883662.353;164;30.00;38760.20
1725883662.403;159;30.00;38950.00
1725883662.454;277;30.00;34800.00
1725883662.504;277;30.00;34800.00
1725883662.554;277;30.00;34800.00
1725883662.604;222;30.00;36720.20
1725883662.654;222;30.00;36720.20
1725883662.704;222;30.00;36720.20
1725883662.754;120;30.00;40330.00
1725883673.334;249;30.00;35770.67
1725883673.384;249;30.00;35770.67
1725883673.434;249;30.00;35770.67
1725883673.485;273;30.00;34929.87
1725883673.535;105;30.00;40854.67
1725883673.585;105;30.00;40854.67
1725883673.634;286;30.00;34461.73
1725883673.684;91;30.00;41352.00
1725883673.735;91;30.00;41352.00
1725883673.785;113;30.00;40572.80
1725883673.835;278;30.00;34742.67
1725883673.885;278;30.00;34742.67
1725883673.934;241;30.00;36065.00
1725883673.984;260;30.00;35388.54
1725883674.034;260;30.00;35388.54
1725883674.085;260;30.00;35388.54
1725883674.134;206;30.00;37300.13
1725883674.185;163;30.00;38814.80
1725883674.234;163;30.00;38814.80
1725883674.285;163;30.00;38814.80
1725883674.335;83;30.00;41637.87
1725883674.384;245;30.00;35938.67
1725883674.435;234;30.00;36297.07
1725883674.486;234;30.00;36297.07
1725883674.535;104;30.00;40887.54
1725883674.586;152;30.00;39205.20
1725883674.636;152;30.00;39205.20
1725883674.685;152;30.00;39205.20
1725883674.736;200;30.00;37510.27
1725883674.786;200;30.00;37510.27
1725883674.837;200;30.00;37510.27
1725883674.887;200;30.00;37497.73
1725883674.937;199;30.00;37555.33
1725883674.988;199;30.00;37555.33
1725883675.037;199;30.00;37555.33
1725883675.087;273;30.00;34920.13
1725883675.137;205;30.00;37332.54
1725883675.187;205;30.00;37332.54
1725883675.238;205;30.00;37332.54
1725883675.288;58;30.00;42516.93
1725883675.338;243;30.00;36000.27
1725883675.388;243;30.00;36000.27
1725883675.439;243;30.00;36000.27
1725883675.489;171;30.00;38538.40
1725883675.539;213;30.00;37041.73
1725883675.589;213;30.00;37041.73
1725883675.639;284;30.00;34543.80
1725883675.690;250;30.00;35762.27
1725883675.739;250;30.00;35762.27
1725883675.789;250;30.00;35762.27
1725883675.839;102;30.00;40956.54
1725883675.890;102;30.00;40956.54
1725883675.939;102;30.00;40956.54
1725883675.990;222;30.00;36724.80
1725883676.041;80;30.00;41742.13
1725883676.090;80;30.00;41742.13
1725883676.142;71;30.00;42051.27
1725883676.191;177;30.00;38333.46
1725883676.241;177;30.00;38333.46
1725883676.292;177;30.00;38333.46
1725883676.341;142;30.00;39538.40
1725883676.392;259;30.00;35417.60
1725883676.441;259;30.00;35441.46
1725883676.492;259;30.00;35441.46
1725883676.542;162;30.00;38864.40
1725883676.593;93;30.00;41282.87
1725883676.643;93;30.00;41282.87
1725883676.693;93;30.00;41282.87
1725883676.743;145;30.00;39441.20
1725883676.792;74;30.00;41944.40
1725883676.842;74;30.00;41944.40
1725883676.893;123;30.00;40204.13
1725883676.943;233;30.00;36350.13
1725883676.993;233;30.00;36350.13
1725883677.042;91;30.00;41338.67
1725883677.093;115;30.00;40509.60
1725883677.143;115;30.00;40509.60
1725883677.193;240;30.00;36085.87
1725883677.243;132;30.00;39907.87
1725883677.293;132;30.00;39907.87
1725883677.343;159;30.00;38959.33
1725883677.393;96;30.00;41186.67
1725883677.444;96;30.00;41186.67
1725883677.493;96;30.00;41186.67
1725883677.543;268;30.00;35097.73
1725883677.593;194;30.00;37713.46
1725883677.643;212;30.00;37077.60
1725883677.693;212;30.00;37077.60
1725883677.743;174;30.00;38437.27
1725883677.794;183;30.00;38110.93
1725883677.844;183;30.00;38110.93
1725883677.894;183;30.00;38110.93
1725883677.944;254;30.00;35611.46
1725883765.584;263;20.00;35273.27
1725883765.634;263;20.00;35273.27
1725883765.734;127;20.00;40069.46
1725883765.783;127;20.00;40069.46
1725883765.834;127;20.00;40069.46
1725883765.884;85;20.00;41547.33
1725883765.935;85;20.00;41547.33
1725883765.986;85;20.00;41547.33
1725883766.035;163;20.00;38796.93
1725883766.085;163;20.00;38796.93
1725883766.136;163;20.00;38796.93
1725883766.186;102;20.00;40979.07
1725883766.236;120;20.00;40339.73
1725883766.286;120;20.00;40339.73
1725883766.337;212;20.00;37069.87
1725883766.387;252;20.00;35678.13
1725883766.437;252;20.00;35678.13
1725883766.487;252;20.00;35678.13
1725883766.536;178;20.00;38274.00
1725883766.587;84;20.00;41583.87
1725883766.637;84;20.00;41583.87
1725883766.687;84;20.00;41583.87
1725883766.736;287;20.00;34433.60
1725883766.787;287;20.00;34433.60
1725883766.837;287;20.00;34433.60
1725883766.887;221;20.00;36760.93
1725883766.937;216;20.00;36942.54
1725883766.987;216;20.00;36942.54
1725883767.037;172;20.00;38492.93
1725883767.087;188;20.00;37921.20
1725883767.137;188;20.00;37921.20
1725883767.186;188;20.00;37921.20
1725883767.237;199;20.00;37556.93
1725883767.286;98;20.00;41087.07
1725883767.337;98;20.00;41087.07
1725883767.388;98;20.00;41087.07
1725883767.437;252;20.00;35657.87
1725883767.488;252;20.00;35657.87
1725883767.538;252;20.00;35657.87
1725883767.588;280;20.00;34679.46
1725883767.638;163;20.00;38805.07
1725883767.688;163;20.00;38805.07
1725883767.738;91;20.00;41360.80
1725883767.788;91;20.00;41360.80
1725883767.838;91;20.00;41360.80
1725883767.889;87;20.00;41478.20
1725883767.938;266;20.00;35173.60
1725883767.988;266;20.00;35173.60
1725883768.038;266;20.00;35173.60
1725883768.088;99;20.00;41053.20
1725883768.139;99;20.00;41053.20
1725883768.189;99;20.00;41053.20
1725883768.239;127;20.00;40065.60
1725883768.289;105;20.00;40868.54
1725883768.339;105;20.00;40868.54
1725883768.396;105;20.00;40868.54
1725883768.439;141;20.00;39586.54
1725883768.489;89;20.00;41412.27
1725883768.539;89;20.00;41412.27
1725883768.589;89;20.00;41412.27
1725883768.640;179;20.00;38237.73
1725883768.690;179;20.00;38237.73
1725883768.740;179;20.00;38237.73
1725883768.790;209;20.00;37194.40
1725883768.840;61;20.00;42420.46
1725883768.890;61;20.00;42420.46
1725883768.940;73;20.00;41986.93
1725883768.990;156;20.00;39042.67
1725883769.040;156;20.00;39042.67
1725883769.090;156;20.00;39042.67
1725883769.140;134;20.00;39844.60
1725883769.190;110;20.00;40682.87
1725883769.240;110;20.00;40682.87
1725883769.290;124;20.00;40173.46
1725883769.340;197;20.00;37604.40
1725883769.391;197;20.00;37604.40
1725883769.441;197;20.00;37604.40
1725883769.491;230;20.00;36461.27
1725883769.540;230;20.00;36461.27
1725883769.591;230;20.00;36461.27
1725883769.640;209;20.00;37207.60
1725883769.691;221;20.00;36778.54
1725883769.741;221;20.00;36778.54
1725883769.792;221;20.00;36778.54
1725883769.841;123;20.00;40229.00
1725883769.892;123;20.00;40229.00
1725883769.941;123;20.00;40229.00
1725883769.992;183;20.00;38107.33
1725883780.613;287;20.00;34430.54
1725883780.663;287;20.00;34430.54
1725883780.713;287;20.00;34430.54
1725883780.763;143;20.00;39522.33
1725883780.812;143;20.00;39522.33
1725883780.863;143;20.00;39522.33
1725883780.913;156;20.00;39043.27
1725883780.963;172;20.00;38505.87
1725883781.013;172;20.00;38505.87
1725883781.064;172;20.00;38505.87
1725883781.114;152;20.00;39183.33
1725883781.164;152;20.00;39183.33
1725883781.214;152;20.00;39183.33
1725883781.265;134;20.00;39833.46
1725883781.315;134;20.00;39833.46
1725883781.366;134;20.00;39833.46
1725883781.415;254;20.00;35600.54
1725883781.466;254;20.00;35600.54
1725883781.515;254;20.00;35600.54
1725883781.566;218;20.00;36870.93
1725883781.615;169;20.00;38584.40
1725883781.666;169;20.00;38584.40
1725883781.716;169;20.00;38584.40
1725883781.766;273;20.00;34949.73
1725883781.816;273;20.00;34949.73
1725883781.867;273;20.00;34949.73
1725883781.916;252;20.00;35672.40
1725883781.967;238;20.00;36184.93
1725883782.016;238;20.00;36184.93
1725883782.067;238;20.00;36184.93
1725883782.116;123;20.00;40214.67
1725883782.166;123;20.00;40214.67
1725883782.217;123;20.00;40214.67
1725883782.267;278;20.00;34758.27
1725883782.317;132;20.00;39903.60
1725883782.367;132;20.00;39903.60
1725883782.417;132;20.00;39903.60
1725883782.467;254;20.00;35620.93
1725883782.517;221;20.00;36770.13
1725883782.567;221;20.00;36770.13
1725883782.618;200;20.00;37513.60
1725883782.668;266;20.00;35175.87
1725883782.718;194;20.00;37728.40
1725883782.769;194;20.00;37728.40
1725883782.819;194;20.00;37728.40
1725883782.869;245;20.00;35910.40
1725883782.918;92;20.00;41329.13
1725883782.969;92;20.00;41329.13
1725883783.019;111;20.00;40658.33
1725883783.069;146;20.00;39425.07
1725883783.119;146;20.00;39425.07
1725883783.169;146;20.00;39425.07
1725883783.319;133;20.00;39877.27
1725883783.369;243;20.00;35989.20
1725883783.420;243;20.00;35989.20
1725883783.471;174;20.00;38433.87
1725883783.521;202;20.00;37428.00
1725883783.571;202;20.00;37428.00
1725883783.621;202;20.00;37428.00
1725883783.673;175;20.00;38383.60
1725883783.723;107;20.00;40789.07
1725883783.773;107;20.00;40789.07
1725883783.823;107;20.00;40789.07
1725883783.873;233;20.00;36350.80
1725883783.923;102;20.00;40977.33
1725883783.973;102;20.00;40977.33
1725883784.023;102;20.00;40977.33
1725883784.073;217;20.00;36926.40
1725883784.123;176;20.00;38341.00
1725883784.173;176;20.00;38341.00
1725883784.223;201;20.00;37464.27
1725883784.272;77;20.00;41834.80
1725883784.323;77;20.00;41834.80
1725883784.373;77;20.00;41834.80
1725883784.424;230;20.00;36461.33
1725883784.474;260;20.00;35398.00
1725883784.524;260;20.00;35398.00
1725883784.574;260;20.00;35398.00
1725883795.574;284;20.00;34532.20
1725883795.624;206;20.00;37309.87
1725883795.674;206;20.00;37309.87
1725883795.725;206;20.00;37309.87
1725883795.775;115;20.00;40502.67
1725883795.825;115;20.00;40502.67
1725883795.875;115;20.00;40502.67
1725883795.925;237;20.00;36214.40
1725883795.974;237;20.00;36214.40
1725883796.026;237;20.00;36214.40
1725883796.076;276;20.00;34820.27
1725883796.126;276;20.00;34820.27
1725883796.175;276;20.00;34820.27
1725883796.225;274;20.00;34887.33
1725883796.275;274;20.00;34887.33
1725883796.326;274;20.00;34887.33
1725883796.376;214;20.00;37021.07
1725883796.426;157;20.00;39009.40
1725883796.476;157;20.00;39009.40
1725883796.527;157;20.00;39009.40
1725883796.627;89;20.00;41430.46
1725883796.677;89;20.00;41430.46
1725883796.726;89;20.00;41430.46
1725883796.777;199;20.00;37551.07
1725883796.827;199;20.00;37551.07
1725883796.877;199;20.00;37551.07
1725883796.927;199;20.00;37551.07
1725883796.977;237;20.00;36196.80
1725883797.027;152;20.00;39192.33
1725883797.077;152;20.00;39192.33
1725883797.127;152;20.00;39192.33
1725883797.177;145;20.00;39430.13
1725883797.227;145;20.00;39430.13
1725883797.277;145;20.00;39430.13
1725883797.327;154;20.00;39143.87
1725883797.377;212;20.00;37100.13
1725883797.427;212;20.00;37100.13
1725883797.477;212;20.00;37100.13
1725883797.526;245;20.00;35925.46
1725883797.577;245;20.00;35925.46
1725883797.627;245;20.00;35925.46
1725883797.678;69;20.00;42141.46
1725883797.728;92;20.00;41313.33
1725883797.778;227;20.00;36553.07
1725883797.828;227;20.00;36553.07
1725883797.928;196;20.00;37644.54
1725883797.978;196;20.00;37644.54
1725883798.028;196;20.00;37644.54
1725883798.078;282;20.00;34627.67
1725883798.128;66;20.00;42233.87
1725883798.178;66;20.00;42233.87
1725883798.227;66;20.00;42233.87
1725883798.279;67;20.00;42180.93
1725883798.328;223;20.00;36710.27
1725883798.378;223;20.00;36710.27
1725883798.428;223;20.00;36710.27
1725883798.478;165;20.00;38732.67
1725883798.528;207;20.00;37262.67
1725883798.578;212;20.00;37090.13
1725883798.629;212;20.00;37090.13
1725883798.678;281;20.00;34665.46
1725883798.730;130;20.00;39983.46
1725883798.779;233;20.00;36346.00
1725883798.830;233;20.00;36346.00
1725883798.880;233;20.00;36346.00
1725883798.930;231;20.00;36431.46
1725883798.980;142;20.00;39564.27
1725883799.030;142;20.00;39564.27
1725883799.080;140;20.00;39617.60
1725883799.130;144;20.00;39485.60
1725883799.180;206;20.00;37294.93
1725883799.230;206;20.00;37294.93
1725883799.281;228;20.00;36534.67
1725883799.331;217;20.00;36893.46
1725883799.380;217;20.00;36893.46
1725883799.432;217;20.00;36893.46
1725883799.482;201;20.00;37458.13
1725883799.531;150;20.00;39271.00
1725883799.582;150;20.00;39271.00
1725883799.631;65;20.00;42252.27
1725883799.682;287;20.00;34424.93
1725883799.731;287;20.00;34424.93
1725883799.782;287;20.00;34424.93
1725883799.831;207;20.00;37249.46
1725883799.882;254;20.00;35610.93
1725883799.936;254;20.00;35610.93
1725883799.982;254;20.00;35610.93
1725883800.032;236;20.00;36224.27
1725883800.083;284;20.00;34544.00
1725883800.132;284;20.00;34544.00
1725883800.182;284;20.00;34544.00
1725883800.233;60;20.00;42425.46
