UnixTimestamp;Microseconds;MilliAmpere;BaseValue
1738252801.893;500;19.01;37067.80
1738252801.938;500;19.01;37067.80
1738252801.987;500;19.01;37067.80
1738252802.037;500;19.01;37067.80
1738252802.088;500;18.38;35273.93
1738252802.137;500;21.04;42861.73
1738252802.389;500;18.86;36630.67
1738252802.439;500;20.04;40000.00
1738252802.489;500;22.49;46969.07
1738252802.539;500;20.37;40953.73
1738252802.589;500;18.73;36267.33
1738252802.639;500;20.11;40187.33
1738252802.690;500;20.11;40187.33
1738252802.739;500;20.11;40187.33
1738252802.790;500;19.82;39377.87
1738252802.840;500;22.15;46016.73
1738252802.889;500;18.70;36197.33
1738252802.941;500;20.74;41995.07
1738252802.991;500;20.85;42293.54
1738252803.041;500;20.85;42293.54
1738252803.091;500;20.85;42293.54
1738252803.141;500;20.85;42293.54
1738252803.191;500;20.82;42213.33
1738252803.242;500;20.63;41681.33
1738252803.292;500;21.41;43897.87
1738252803.343;500;20.23;40552.54
1738252803.393;500;20.23;40552.54
1738252803.443;500;20.23;40552.54
1738252803.493;500;20.23;40552.54
1738252803.543;500;20.23;40552.54
1738252803.593;500;20.62;41645.87
1738252803.643;500;22.05;45712.00
1738252803.693;500;18.79;36441.33
1738252803.744;500;21.23;43389.60
1738252803.794;500;21.23;43389.60
1738252803.844;500;21.23;43389.60
1738252803.895;500;21.23;43389.60
1738252803.944;500;21.23;43389.60
1738252803.995;500;22.11;45887.54
1738252804.045;500;21.98;45536.27
1738252804.095;500;22.04;45705.07
1738252804.145;500;21.47;44062.00
1738252804.195;500;21.47;44062.00
1738252804.245;500;21.47;44062.00
1738252804.296;500;20.90;42450.67
1738252804.346;500;20.11;40188.54
1738252804.396;500;19.30;37903.46
1738252804.446;500;21.37;43794.40
1738252804.496;500;20.63;41690.67
1738252804.546;500;20.63;41690.67
1738252804.597;500;20.63;41690.67
1738252804.647;500;20.56;41469.33
1738252804.697;500;21.58;44389.07
1738252804.797;500;18.65;36047.73
1738252804.847;500;18.65;36047.73
1738252804.897;500;18.65;36047.73
1738252804.947;500;18.65;36047.73
1738252804.998;500;19.40;38179.87
1738252805.047;500;19.84;39418.13
1738252805.097;500;19.51;38486.67
1738252805.147;500;21.02;42796.80
1738252805.198;500;21.02;42796.80
1738252805.247;500;21.02;42796.80
1738252805.298;500;21.02;42796.80
1738252805.348;500;19.57;38651.20
1738252805.398;500;20.68;41827.73
1738252805.448;500;18.42;35378.40
1738252805.498;500;21.27;43499.00
1738252805.548;500;21.27;43499.00
1738252805.598;500;21.27;43499.00
1738252805.648;500;21.27;43499.00
1738252805.698;500;21.59;44416.27
1738252805.749;500;19.96;39783.87
1738252805.798;500;21.04;42836.54
1738252805.849;500;18.75;36318.13
1738252805.899;500;18.75;36318.13
1738252805.948;500;18.75;36318.13
1738252805.999;500;18.75;36318.13
1738252806.048;500;20.11;40203.20
1738252806.099;500;18.56;35788.00
1738252806.149;500;20.86;42341.20
1738252806.199;500;21.88;45246.07
1738252806.249;500;21.88;45246.07
1738252806.299;500;21.88;45246.07
1738252806.349;500;21.88;45246.07
1738252806.399;500;20.15;40316.87
1738252806.449;500;21.43;43969.73
1738252806.500;500;20.66;41767.73
1738252806.550;500;20.92;42499.07
1738252806.599;500;20.89;42429.33
1738252806.650;500;20.89;42429.33
1738252806.699;500;20.89;42429.33
1738252806.750;500;20.89;42429.33
1738252806.799;500;20.54;41435.13
1738252806.850;500;18.34;35169.87
1738252806.899;500;18.39;35294.67
1738252806.950;500;19.42;38248.00
1738252806.999;500;19.42;38248.00
1738252807.050;500;19.42;38248.00
1738252807.100;500;19.42;38248.00
1738252807.150;500;19.42;38248.00
1738252807.200;500;21.18;43253.46
1738252807.250;500;19.54;38576.54
1738252807.300;500;18.89;36733.33
1738252807.350;500;21.81;45039.80
1738252807.400;500;20.25;40584.60
1738252807.450;500;20.25;40584.60
1738252807.501;500;20.25;40584.60
1738252807.551;500;19.20;37607.13
1738252807.600;500;21.06;42914.67
1738252807.651;500;18.34;35153.33
1738252807.701;500;20.54;41421.07
1738252807.751;500;21.01;42759.40
1738252807.801;500;21.93;45368.13
1738252807.851;500;21.93;45368.13
1738252807.900;500;21.93;45368.13
1738252807.951;500;21.93;45368.13
1738252808.002;500;20.12;40236.27
1738252808.053;500;20.44;41152.80
1738252808.104;500;19.12;37370.40
1738252808.154;500;22.12;45929.40
1738252808.204;500;22.12;45929.40
1738252808.254;500;22.12;45929.40
1738252808.303;500;22.12;45929.40
1738252808.354;500;21.12;43065.93
1738252808.403;500;20.88;42386.93
1738252808.454;500;20.91;42473.60
1738252808.503;500;20.96;42614.40
1738252808.553;500;19.95;39750.13
1738252808.603;500;19.95;39750.13
1738252808.654;500;19.95;39750.13
1738252808.704;500;20.43;41099.46
1738252808.754;500;18.59;35870.67
1738252808.804;500;21.25;43436.93
1738252808.854;500;21.17;43228.93
1738252808.904;500;21.74;44850.67
1738252808.954;500;20.84;42281.60
1738252809.005;500;20.84;42281.60
1738252809.055;500;20.84;42281.60
1738252809.105;500;20.84;42281.60
1738252809.156;500;21.25;43449.87
1738252809.205;500;20.67;41801.33
1738252809.255;500;19.20;37596.00
1738252809.306;500;18.77;36390.40
1738252809.356;500;21.80;45025.60
1738252809.406;500;21.99;45547.33
1738252809.456;500;21.99;45547.33
1738252809.507;500;21.99;45547.33
1738252809.556;500;21.99;45547.33
1738252809.607;500;20.69;41840.27
1738252809.656;500;18.29;35013.60
1738252809.706;500;19.16;37502.54
1738252809.756;500;20.88;42378.40
1738252809.806;500;20.88;42378.40
1738252809.857;500;20.88;42378.40
1738252809.907;500;20.88;42378.40
1738252809.968;500;20.88;42378.40
1738252810.015;500;19.19;37585.07
1738252810.066;500;21.09;42992.67
1738252810.115;500;20.69;41856.27
1738252810.166;500;20.69;41856.27
1738252810.216;500;20.69;41856.27
1738252810.266;500;20.69;41856.27
1738252810.316;500;20.69;41856.27
1738252810.416;500;19.81;39342.67
1738252810.466;500;21.78;44963.46
1738252810.516;500;19.96;39786.27
1738252810.566;500;19.96;39786.27
1738252810.616;500;19.96;39786.27
1738252810.667;500;19.96;39786.27
1738252810.716;500;19.00;37030.67
1738252810.766;500;22.30;46423.93
1738252810.817;500;19.49;38431.46
1738252810.866;500;18.97;36954.27
1738252810.916;500;18.97;36954.27
1738252810.966;500;18.97;36954.27
1738252811.017;500;19.74;39139.73
1738252811.066;500;19.74;39139.73
1738252811.117;500;19.18;37545.13
1738252811.167;500;19.74;39138.27
1738252811.216;500;20.15;40318.27
1738252811.267;500;20.15;40318.27
1738252811.317;500;20.15;40318.27
1738252811.367;500;20.15;40318.27
1738252811.417;500;21.84;45113.33
1738252811.467;500;19.20;37603.54
1738252811.517;500;22.12;45931.33
1738252811.567;500;21.85;45155.20
1738252831.030;500;19.17;37524.00
1738252831.080;500;19.36;38072.80
1738252831.130;500;19.36;38072.80
1738252831.181;500;19.36;38072.80
1738252831.231;500;18.71;36224.73
1738252831.280;500;21.48;44089.13
1738252831.330;500;18.78;36405.07
1738252831.381;500;20.62;41658.67
1738252831.432;500;19.34;38019.46
1738252831.483;500;19.34;38019.46
1738252831.532;500;19.34;38019.46
1738252831.582;500;19.34;38019.46
1738252831.632;500;20.73;41954.27
1738252831.683;500;21.96;45464.13
1738252831.733;500;18.74;36296.27
1738252831.784;500;18.74;36296.27
1738252831.833;500;18.74;36296.27
1738252831.883;500;18.74;36296.27
1738252831.933;500;20.18;40387.46
1738252831.983;500;19.48;38418.93
1738252832.035;500;20.06;40051.54
1738252832.085;500;20.06;40051.54
1738252832.134;500;20.06;40051.54
1738252832.185;500;20.06;40051.54
1738252832.234;500;20.59;41578.33
1738252832.285;500;21.74;44852.93
1738252832.334;500;20.47;41232.27
1738252832.385;500;20.47;41232.27
1738252832.435;500;20.47;41232.27
1738252832.485;500;20.47;41232.27
1738252832.535;500;21.11;43057.46
1738252832.585;500;20.40;41035.73
1738252832.636;500;19.60;38750.93
1738252832.686;500;19.60;38750.93
1738252832.736;500;19.60;38750.93
1738252832.786;500;19.60;38750.93
1738252832.836;500;20.52;41358.40
1738252832.886;500;21.25;43438.80
1738252832.937;500;21.69;44703.07
1738252832.987;500;21.69;44703.07
1738252833.037;500;21.69;44703.07
1738252833.086;500;21.69;44703.07
1738252833.136;500;21.77;44924.00
1738252833.186;500;18.91;36790.67
1738252833.237;500;18.64;36004.54
1738252833.287;500;18.64;36004.54
1738252833.337;500;18.64;36004.54
1738252833.388;500;18.64;36004.54
1738252833.488;500;20.87;42363.00
1738252833.538;500;20.65;41735.73
1738252833.589;500;20.65;41735.73
1738252833.638;500;20.65;41735.73
1738252833.689;500;20.65;41735.73
1738252833.739;500;20.69;41840.73
1738252833.789;500;19.54;38584.00
1738252834.040;500;18.37;35238.07
1738252834.089;500;18.80;36479.20
1738252834.140;500;18.50;35602.33
1738252834.189;500;18.50;35602.33
1738252834.241;500;18.50;35602.33
1738252834.290;500;18.50;35602.33
1738252834.341;500;19.34;38013.60
1738252834.391;500;19.36;38067.73
1738252834.440;500;18.32;35113.07
1738252834.491;500;18.32;35113.07
1738252834.540;500;18.32;35113.07
1738252834.590;500;18.32;35113.07
1738252834.640;500;20.31;40758.67
1738252834.690;500;19.65;38886.33
1738252834.741;500;20.97;42654.13
1738252834.790;500;20.91;42468.80
1738252834.841;500;20.91;42468.80
1738252834.890;500;20.91;42468.80
1738252834.940;500;21.95;45432.54
1738252834.990;500;19.68;38967.60
1738252835.040;500;18.67;36101.60
1738252835.091;500;20.95;42603.13
1738252835.141;500;20.95;42603.13
1738252835.191;500;20.95;42603.13
1738252835.241;500;20.95;42603.13
1738252835.292;500;21.42;43916.73
1738252835.342;500;20.26;40637.33
1738252835.391;500;20.51;41331.20
1738252835.441;500;19.86;39474.13
1738252835.491;500;19.86;39474.13
1738252835.542;500;19.86;39474.13
1738252835.592;500;19.86;39474.13
1738252835.643;500;19.87;39529.20
1738252835.692;500;21.94;45407.07
1738252835.742;500;21.88;45237.80
1738252835.792;500;22.07;45777.07
1738252835.843;500;22.07;45777.07
1738252835.894;500;22.07;45777.07
1738252835.944;500;21.86;45190.13
1738252835.993;500;21.00;42732.27
1738252836.043;500;20.95;42582.40
1738252836.093;500;19.74;39132.13
1738252836.143;500;21.03;42806.46
1738252836.195;500;21.03;42806.46
1738252836.245;500;21.03;42806.46
1738252836.295;500;21.03;42806.46
1738252836.344;500;20.77;42093.33
1738252836.395;500;19.70;39045.07
1738252836.444;500;22.16;46029.80
1738252836.496;500;22.16;46029.80
1738252836.545;500;22.16;46029.80
1738252836.596;500;22.16;46029.80
1738252836.645;500;18.26;34921.33
1738252836.696;500;19.73;39121.73
1738252836.746;500;21.51;44184.00
1738252836.796;500;21.53;44237.73
1738252836.845;500;21.60;44434.00
1738252836.895;500;21.60;44434.00
1738252836.945;500;21.60;44434.00
1738252836.996;500;21.60;44434.00
1738252837.046;500;18.86;36652.67
1738252837.096;500;22.22;46214.27
1738252837.146;500;19.01;37066.67
1738252837.196;500;21.11;43057.33
1738252837.245;500;21.11;43057.33
1738252837.296;500;21.11;43057.33
1738252837.346;500;18.71;36214.93
1738252837.396;500;19.48;38405.60
1738252837.446;500;20.92;42494.67
1738252837.496;500;19.48;38398.40
1738252837.546;500;19.99;39847.46
1738252837.597;500;19.99;39847.46
1738252837.646;500;19.99;39847.46
1738252837.697;500;20.77;42086.40
1738252837.747;500;20.81;42190.13
1738252837.797;500;21.39;43840.54
1738252837.847;500;21.16;43186.40
1738252837.897;500;21.16;43186.40
1738252837.947;500;21.16;43186.40
1738252837.997;500;21.16;43186.40
1738252838.047;500;19.49;38437.60
1738252838.098;500;19.53;38538.93
1738252838.148;500;21.35;43739.33
1738252838.198;500;20.93;42540.13
1738252838.248;500;20.93;42540.13
1738252838.297;500;20.93;42540.13
1738252838.347;500;20.93;42540.13
1738252838.398;500;20.60;41581.73
1738252838.447;500;21.85;45142.40
1738252838.498;500;20.82;42216.54
1738252838.547;500;20.55;41453.87
1738252838.599;500;20.55;41453.87
1738252838.649;500;20.55;41453.87
1738252838.699;500;20.55;41453.87
1738252838.748;500;21.70;44724.13
1738252838.798;500;21.07;42930.60
1738252838.850;500;19.06;37204.54
1738252838.900;500;19.06;37204.54
1738252838.949;500;19.06;37204.54
1738252838.999;500;19.06;37204.54
1738252839.050;500;21.31;43630.13
1738252839.100;500;20.92;42517.60
1738252839.149;500;21.75;44863.33
1738252839.199;500;21.75;44863.33
1738252839.250;500;21.75;44863.33
1738252839.300;500;21.75;44863.33
1738252839.349;500;21.92;45357.20
1738252839.400;500;20.70;41891.73
1738252839.449;500;19.77;39218.40
1738252839.500;500;21.47;44063.73
1738252858.674;500;19.56;38643.20
1738252858.724;500;18.42;35383.46
1738252858.774;500;18.96;36921.33
1738252858.825;500;18.96;36921.33
1738252858.875;500;18.96;36921.33
1738252858.925;500;18.96;36921.33
1738252858.975;500;19.87;39509.73
1738252859.025;500;20.25;40609.87
1738252859.076;500;20.35;40888.80
1738252859.126;500;20.35;40888.80
1738252859.176;500;20.35;40888.80
1738252859.225;500;20.35;40888.80
1738252859.276;500;19.39;38154.54
1738252859.325;500;20.40;41019.93
1738252859.376;500;21.30;43584.27
1738252859.426;500;21.30;43584.27
1738252859.476;500;21.30;43584.27
1738252859.526;500;22.24;46277.46
1738252859.576;500;21.00;42736.93
1738252859.626;500;20.02;39946.13
1738252859.676;500;20.02;39942.40
1738252859.726;500;20.02;39942.40
1738252859.776;500;20.02;39942.40
1738252859.826;500;20.02;39942.40
1738252859.876;500;21.02;42791.73
1738252859.926;500;20.82;42219.00
1738252859.976;500;21.47;44066.54
1738252860.026;500;20.56;41484.40
1738252860.077;500;20.56;41484.40
1738252860.126;500;20.56;41484.40
1738252860.176;500;20.56;41484.40
1738252860.226;500;20.56;41484.40
1738252860.277;500;18.90;36763.46
1738252860.327;500;19.73;39126.00
1738252860.376;500;20.51;41327.87
1738252860.427;500;20.51;41327.87
1738252860.477;500;20.51;41327.87
1738252860.527;500;21.28;43538.00
1738252860.577;500;21.41;43893.33
1738252860.627;500;21.47;44061.87
1738252860.676;500;20.54;41417.40
1738252860.728;500;20.54;41417.40
1738252860.778;500;20.54;41417.40
1738252860.828;500;20.54;41417.40
1738252860.878;500;21.10;43023.46
1738252860.927;500;19.80;39316.54
1738252860.977;500;20.84;42273.87
1738252861.028;500;20.29;40726.13
1738252861.078;500;20.22;40516.00
1738252861.128;500;20.22;40516.00
1738252861.178;500;20.22;40516.00
1738252861.227;500;18.83;36560.67
1738252861.279;500;19.76;39202.46
1738252861.329;500;20.86;42347.60
1738252861.379;500;20.89;42416.40
1738252861.429;500;20.89;42416.40
1738252861.479;500;20.89;42416.40
1738252861.529;500;21.82;45060.93
1738252861.579;500;21.16;43184.33
1738252861.629;500;20.98;42663.00
1738252861.679;500;19.67;38946.80
1738252861.730;500;19.67;38946.80
1738252861.779;500;19.67;38946.80
1738252861.829;500;19.08;37260.67
1738252861.880;500;22.13;45955.93
1738252861.930;500;21.39;43840.46
1738252861.980;500;21.60;44453.54
1738252862.029;500;21.60;44453.54
1738252862.081;500;21.60;44453.54
1738252862.131;500;20.29;40709.07
1738252862.181;500;20.64;41702.13
1738252862.231;500;22.20;46161.07
1738252862.281;500;21.98;45519.27
1738252862.331;500;21.98;45519.27
1738252862.381;500;21.98;45519.27
1738252862.431;500;21.98;45519.27
1738252862.481;500;20.68;41818.07
1738252862.531;500;20.82;42209.87
1738252862.582;500;20.48;41266.67
1738252862.632;500;20.48;41266.67
1738252862.682;500;20.48;41266.67
1738252862.732;500;20.48;41266.67
1738252862.783;500;20.56;41472.13
1738252862.833;500;20.35;40890.13
1738252862.883;500;19.62;38797.73
1738252862.932;500;19.62;38797.73
1738252862.982;500;19.62;38797.73
1738252863.032;500;19.62;38797.73
1738252863.082;500;20.79;42124.00
1738252863.132;500;21.54;44258.93
1738252863.182;500;18.32;35113.33
1738252863.232;500;18.32;35113.33
1738252863.282;500;18.32;35113.33
1738252863.332;500;18.32;35113.33
1738252863.389;500;18.82;36514.33
1738252863.435;500;18.82;36514.33
1738252863.485;500;20.99;42701.33
1738252863.534;500;20.99;42701.33
1738252863.585;500;20.99;42701.33
1738252863.635;500;20.99;42701.33
1738252863.684;500;19.00;37041.60
1738252863.735;500;18.89;36739.33
1738252863.784;500;19.30;37883.20
1738252863.835;500;19.30;37883.20
1738252863.885;500;19.30;37883.20
1738252863.935;500;19.30;37883.20
1738252863.985;500;21.32;43633.20
1738252864.035;500;21.75;44859.67
1738252864.085;500;21.71;44749.46
1738252864.136;500;21.71;44749.46
1738252864.185;500;21.71;44749.46
1738252864.236;500;21.19;43265.73
1738252864.286;500;18.92;36802.93
1738252864.337;500;19.75;39162.13
1738252864.386;500;21.73;44805.07
1738252864.437;500;21.73;44805.07
1738252864.486;500;21.73;44805.07
1738252864.537;500;21.73;44805.07
1738252864.587;500;21.26;43479.60
1738252864.647;500;21.26;43479.60
1738252864.691;500;21.03;42822.40
1738252864.742;500;21.03;42822.40
1738252864.792;500;21.03;42822.40
1738252864.842;500;21.03;42822.40
1738252864.892;500;21.58;44374.33
1738252864.942;500;21.54;44268.33
1738252864.992;500;21.70;44728.00
1738252865.041;500;21.70;44728.00
1738252865.092;500;21.70;44728.00
1738252865.142;500;21.70;44728.00
1738252865.192;500;20.83;42241.07
1738252865.242;500;21.38;43802.60
1738252865.292;500;21.27;43515.73
1738252865.343;500;21.27;43515.73
1738252865.392;500;21.27;43515.73
1738252865.442;500;21.27;43515.73
1738252865.492;500;18.43;35403.46
1738252865.543;500;20.44;41129.00
1738252865.593;500;20.57;41522.13
1738252865.643;500;20.57;41522.13
1738252865.693;500;20.57;41522.13
1738252865.744;500;20.57;41522.13
1738252865.793;500;20.46;41185.20
1738252865.843;500;21.78;44943.13
1738252865.894;500;19.68;38977.87
1738252865.944;500;19.68;38977.87
1738252865.993;500;19.68;38977.87
1738252866.044;500;19.68;38977.87
1738252866.094;500;20.11;40199.20
1738252866.145;500;19.95;39743.46
1738252866.195;500;22.10;45868.80
1738252866.245;500;21.23;43379.46
1738252866.295;500;21.23;43379.46
1738252866.345;500;21.23;43379.46
1738252866.394;500;21.23;43379.46
1738252866.445;500;20.70;41884.13
1738252866.495;500;19.37;38103.93
1738252866.545;500;20.04;40003.13
1738252866.595;500;20.04;40003.13
1738252866.645;500;20.04;40003.13
1738252866.696;500;20.04;40003.13
1738252866.745;500;20.89;42429.33
1738252866.794;500;20.71;41894.40
1738252866.845;500;20.49;41273.07
1738253032.920;200;19.12;37382.13
1738253032.972;200;18.77;36377.27
1738253033.022;200;18.77;36377.27
1738253033.072;200;18.77;36377.27
1738253033.123;200;18.77;36377.27
1738253033.223;200;21.50;44148.13
1738253033.273;200;18.28;34995.46
1738253033.323;200;18.28;34995.46
1738253033.374;200;18.28;34995.46
1738253033.423;200;18.49;35585.60
1738253033.473;200;21.16;43187.13
1738253033.523;200;19.30;37882.40
1738253033.573;200;21.39;43844.27
1738253033.623;200;21.39;43844.27
1738253033.674;200;21.39;43844.27
1738253033.724;200;21.39;43844.27
1738253033.773;200;20.39;41000.00
1738253033.824;200;22.01;45606.07
1738253033.873;200;20.20;40460.33
1738253033.924;200;20.20;40460.33
1738253033.973;200;20.20;40460.33
1738253034.024;200;20.20;40460.33
1738253034.074;200;18.74;36308.27
1738253034.124;200;18.88;36702.54
1738253034.174;200;21.76;44898.00
1738253034.224;200;21.09;42986.87
1738253034.274;200;21.09;42986.87
1738253034.325;200;21.09;42986.87
1738253034.375;200;21.46;44040.40
1738253034.424;200;21.65;44595.33
1738253034.475;200;18.36;35208.54
1738253034.525;200;19.60;38754.93
1738253034.575;200;20.26;40620.54
1738253034.625;200;20.26;40620.54
1738253034.675;200;20.26;40620.54
1738253034.725;200;20.20;40465.33
1738253034.775;200;21.81;45040.46
1738253034.825;200;21.91;45331.73
1738253034.876;200;19.64;38853.67
1738253034.925;200;19.64;38853.67
1738253034.976;200;19.64;38853.67
1738253035.026;200;19.64;38853.67
1738253035.075;200;22.10;45877.93
1738253035.126;200;21.72;44770.54
1738253035.176;200;19.36;38065.60
1738253035.226;200;20.92;42512.00
1738253035.276;200;20.92;42512.00
1738253035.326;200;20.92;42512.00
1738253035.375;200;20.92;42512.00
1738253035.426;200;20.92;42512.00
1738253035.476;200;22.40;46731.20
1738253035.526;200;20.74;41986.40
1738253035.576;200;18.46;35506.40
1738253035.626;200;18.46;35506.40
1738253035.675;200;18.46;35506.40
1738253035.726;200;18.46;35506.40
1738253035.776;200;18.25;34912.93
1738253035.826;200;20.82;42207.87
1738253035.877;200;19.15;37459.33
1738253035.927;200;19.15;37459.33
1738253035.976;200;21.52;44208.20
1738253036.026;200;21.52;44208.20
1738253036.076;200;21.52;44208.20
1738253036.126;200;21.52;44208.20
1738253036.176;200;20.18;40412.87
1738253036.226;200;19.59;38709.20
1738253036.276;200;21.05;42862.93
1738253036.327;200;21.05;42862.93
1738253036.377;200;21.05;42862.93
1738253036.427;200;21.05;42862.93
1738253036.477;200;22.65;47426.67
1738253036.527;200;21.10;43015.07
1738253036.576;200;20.33;40822.13
1738253036.626;200;20.33;40822.13
1738253036.677;200;20.33;40822.13
1738253036.727;200;20.33;40822.13
1738253036.777;200;18.80;36455.46
1738253036.828;200;19.73;39117.93
1738253036.878;200;21.45;44009.07
1738253036.928;200;21.45;44009.07
1738253036.978;200;21.45;44009.07
1738253037.028;200;22.23;46250.13
1738253037.078;200;19.86;39488.27
1738253037.128;200;20.31;40764.27
1738253037.178;200;20.67;41790.00
1738253037.228;200;20.67;41790.00
1738253037.278;200;20.67;41790.00
1738253037.328;200;20.67;41790.00
1738253037.378;200;22.03;45659.60
1738253037.429;200;21.18;43255.87
1738253037.479;200;19.22;37677.60
1738253037.529;200;19.22;37677.60
1738253037.579;200;19.22;37677.60
1738253037.630;200;21.13;43112.27
1738253037.679;200;21.28;43535.00
1738253037.729;200;21.23;43375.60
1738253037.779;200;21.23;43375.60
1738253037.829;200;21.23;43375.60
1738253037.880;200;21.23;43375.60
1738253037.930;200;19.98;39825.73
1738253037.980;200;20.10;40169.07
1738253038.030;200;19.58;38688.00
1738253038.079;200;19.58;38688.00
1738253038.130;200;19.58;38688.00
1738253038.179;200;19.58;38688.00
1738253038.229;200;19.58;38688.00
1738253038.286;200;21.30;43587.54
1738253038.333;200;21.44;43991.80
1738253038.383;200;20.92;42495.46
1738253038.433;200;20.92;42495.46
1738253038.482;200;20.92;42495.46
1738253038.532;200;20.92;42495.46
1738253038.583;200;21.30;43602.00
1738253038.633;200;19.32;37938.93
1738253038.683;200;19.08;37263.73
1738253038.733;200;18.62;35953.87
1738253038.784;200;18.62;35953.87
1738253038.834;200;18.62;35953.87
1738253038.883;200;21.37;43782.54
1738253038.933;200;22.24;46266.40
1738253038.983;200;18.84;36596.00
1738253039.034;200;19.77;39245.20
1738253039.083;200;19.77;39245.20
1738253039.134;200;19.77;39245.20
1738253039.184;200;19.77;39245.20
1738253039.234;200;19.64;38875.46
1738253039.284;200;20.63;41669.00
1738253039.335;200;20.11;40190.80
1738253039.385;200;19.45;38310.80
1738253039.434;200;19.45;38310.80
1738253039.489;200;19.45;38310.80
1738253039.535;200;19.45;38310.80
1738253039.585;200;21.01;42772.60
1738253039.635;200;19.25;37762.13
1738253039.685;200;22.00;45591.87
1738253039.736;200;19.52;38525.07
1738253039.785;200;19.52;38525.07
1738253039.835;200;19.52;38525.07
1738253039.885;200;19.52;38525.07
1738253039.936;200;21.79;44988.46
1738253039.985;200;18.59;35874.13
1738253040.035;200;18.92;36819.20
1738253040.086;200;20.28;40695.33
1738253040.136;200;20.28;40695.33
1738253040.186;200;20.28;40695.33
1738253040.236;200;20.28;40695.33
1738253040.286;200;19.24;37719.20
1738253040.336;200;20.27;40647.73
1738253040.386;200;20.17;40360.13
1738253040.436;200;20.17;40360.13
1738253040.486;200;20.17;40360.13
1738253040.537;200;20.17;40360.13
1738253040.587;200;19.02;37097.60
1738253040.636;200;18.40;35336.00
1738253040.686;200;18.36;35222.73
1738253040.737;200;20.67;41790.46
1738253040.787;200;22.47;46905.87
1738253040.837;200;22.47;46905.87
1738253040.887;200;22.47;46905.87
1738253040.938;200;22.47;46905.87
1738253040.989;200;21.62;44508.93
1738253041.040;200;21.55;44295.46
1738253041.089;200;21.30;43580.80
1738253041.140;200;20.80;42154.40
1738253061.120;200;19.87;39502.67
1738253061.170;200;19.87;39502.67
1738253061.219;200;19.87;39502.67
1738253061.270;200;19.87;39502.67
1738253061.319;200;19.87;39502.67
1738253061.370;200;18.66;36075.60
1738253061.420;200;18.68;36128.00
1738253061.471;200;19.18;37561.87
1738253061.521;200;19.97;39812.93
1738253061.571;200;19.97;39812.93
1738253061.620;200;19.97;39812.93
1738253061.671;200;20.05;40023.73
1738253061.721;200;20.28;40686.93
1738253061.771;200;20.38;40960.00
1738253061.821;200;20.06;40054.54
1738253061.871;200;20.06;40054.54
1738253061.921;200;20.06;40054.54
1738253061.971;200;20.06;40054.54
1738253062.021;200;20.58;41529.73
1738253062.071;200;20.58;41529.73
1738253062.121;200;20.28;40681.20
1738253062.171;200;20.82;42229.20
1738253062.222;200;20.82;42229.20
1738253062.271;200;20.82;42229.20
1738253062.321;200;20.82;42229.20
1738253062.372;200;21.66;44609.87
1738253062.421;200;20.71;41912.67
1738253062.472;200;21.21;43323.73
1738253062.522;200;20.03;39971.87
1738253062.572;200;20.03;39971.87
1738253062.622;200;20.03;39971.87
1738253062.673;200;20.03;39971.87
1738253062.723;200;21.59;44407.00
1738253062.773;200;22.29;46413.73
1738253062.823;200;20.36;40924.20
1738253062.873;200;22.03;45661.00
1738253062.923;200;22.03;45661.00
1738253062.973;200;22.03;45661.00
1738253063.023;200;22.03;45661.00
1738253063.073;200;21.51;44187.20
1738253063.123;200;19.23;37681.33
1738253063.174;200;19.09;37292.80
1738253063.223;200;21.97;45485.60
1738253063.274;200;21.97;45485.60
1738253063.324;200;21.97;45485.60
1738253063.374;200;21.97;45485.60
1738253063.423;200;19.86;39492.67
1738253063.474;200;21.48;44115.07
1738253063.523;200;18.87;36662.13
1738253063.573;200;20.35;40882.40
1738253063.623;200;20.35;40882.40
1738253063.674;200;20.35;40882.40
1738253063.724;200;20.35;40882.40
1738253063.774;200;19.81;39353.07
1738253063.823;200;20.64;41707.46
1738253063.874;200;19.16;37497.46
1738253063.924;200;18.60;35902.20
1738253063.974;200;18.60;35902.20
1738253064.023;200;18.60;35902.20
1738253064.073;200;18.60;35902.20
1738253064.123;200;19.86;39493.60
1738253064.175;200;18.98;36995.20
1738253064.225;200;21.74;44847.73
1738253064.274;200;21.74;44847.73
1738253064.325;200;21.74;44847.73
1738253064.375;200;21.74;44847.73
1738253064.425;200;21.74;44847.73
1738253064.474;200;19.66;38904.60
1738253064.538;200;22.43;46808.87
1738253064.584;200;22.43;46808.87
1738253064.634;200;20.03;39978.13
1738253064.684;200;20.03;39978.13
1738253064.734;200;20.03;39978.13
1738253064.784;200;20.03;39978.13
1738253064.834;200;21.02;42788.00
1738253064.885;200;20.34;40863.20
1738253064.934;200;21.78;44948.27
1738253064.985;200;22.79;47839.73
1738253065.035;200;20.31;40756.54
1738253065.084;200;20.31;40756.54
1738253065.134;200;20.31;40756.54
1738253065.185;200;19.96;39769.46
1738253065.235;200;20.03;39979.46
1738253065.284;200;20.71;41902.13
1738253065.334;200;22.04;45705.80
1738253065.385;200;22.04;45705.80
1738253065.435;200;22.04;45705.80
1738253065.486;200;22.04;45705.80
1738253065.535;200;22.03;45674.40
1738253065.585;200;21.97;45505.87
1738253065.636;200;20.30;40753.33
1738253065.686;200;20.30;40753.33
1738253065.737;200;20.30;40753.33
1738253065.786;200;20.30;40753.33
1738253065.837;200;20.30;40753.33
1738253065.888;200;20.30;40753.33
1738253065.937;200;19.26;37782.40
1738253065.988;200;20.29;40726.40
1738253066.037;200;21.14;43129.60
1738253066.088;200;21.14;43129.60
1738253066.139;200;21.14;43129.60
1738253066.188;200;21.14;43129.60
1738253066.239;200;21.14;43129.60
1738253066.289;200;21.95;45441.87
1738253066.339;200;20.51;41333.33
1738253066.389;200;19.59;38724.07
1738253066.439;200;20.76;42046.00
1738253066.490;200;20.76;42046.00
1738253066.539;200;20.76;42046.00
1738253066.590;200;20.76;42046.00
1738253066.640;200;20.76;42046.00
1738253066.690;200;20.29;40726.54
1738253066.740;200;19.44;38305.60
1738253066.790;200;19.84;39439.73
1738253066.841;200;19.28;37826.27
1738253066.890;200;19.28;37826.27
1738253066.940;200;19.28;37826.27
1738253066.990;200;19.28;37826.27
1738253067.040;200;19.28;37826.27
1738253067.090;200;21.77;44932.40
1738253067.140;200;18.80;36470.67
1738253067.191;200;22.47;46929.60
1738253067.241;200;21.53;44233.87
1738253067.290;200;21.62;44510.67
1738253067.341;200;21.89;45279.46
1738253067.391;200;21.89;45279.46
1738253067.440;200;21.89;45279.46
1738253067.490;200;19.36;38059.20
1738253067.541;200;19.87;39520.00
1738253067.591;200;20.40;41036.13
1738253067.641;200;22.41;46752.67
1738253067.691;200;20.60;41585.87
1738253067.741;200;20.43;41123.46
1738253067.791;200;20.43;41123.46
1738253067.841;200;20.43;41123.46
1738253067.890;200;19.94;39728.54
1738253067.941;200;19.86;39492.67
1738253067.991;200;21.61;44483.20
1738253068.041;200;20.72;41932.40
1738253068.092;200;20.72;41932.40
1738253068.141;200;20.72;41932.40
1738253068.192;200;20.72;41932.40
1738253068.241;200;20.72;41932.40
1738253068.292;200;18.74;36306.40
1738253068.341;200;19.79;39287.73
1738253068.391;200;19.79;39287.73
1738253068.442;200;19.93;39680.54
1738253068.492;200;19.93;39680.54
1738253068.542;200;19.93;39680.54
1738253068.592;200;19.93;39680.54
1738253068.642;200;20.54;41410.33
1738253068.692;200;20.42;41096.40
1738253068.741;200;18.98;36995.07
1738253068.793;200;19.35;38028.00
1738253068.843;200;19.35;38028.00
1738253068.894;200;19.35;38028.00
1738253068.944;200;19.35;38028.00
1738253068.993;200;21.98;45513.87
1738253069.044;200;21.01;42775.73
1738253069.093;200;21.27;43492.60
1738253069.143;200;21.45;44029.73
1738253069.193;200;21.45;44029.73
1738253069.243;200;21.45;44029.73
1738253069.293;200;20.42;41072.54
1738253069.344;200;21.07;42924.80
1738253069.395;200;20.25;40597.46
1738253069.445;200;20.25;40597.46
1738253069.495;200;20.25;40597.46
1738253069.545;200;20.25;40597.46
1738253069.594;200;19.64;38872.80
1738253069.645;200;21.86;45196.13
1738253069.694;200;22.30;46433.33
1738253069.745;200;22.39;46678.87
1738253069.794;200;22.39;46678.87
1738253069.845;200;22.39;46678.87
1738253069.894;200;22.39;46678.87
1738253069.945;200;21.85;45141.46
1738253069.995;200;22.04;45702.13
1738253070.045;200;20.33;40825.87
1738253070.095;200;20.33;40825.87
1738253070.144;200;20.33;40825.87
1738253070.194;200;20.33;40825.87
1738253070.245;200;22.45;46869.54
1738253070.295;200;22.20;46143.73
1738253070.345;200;19.94;39718.27
1738253090.012;200;19.79;39297.60
1738253090.062;200;18.42;35382.27
1738253090.112;200;18.42;35382.27
1738253090.162;200;18.42;35382.27
1738253090.212;200;18.83;36555.00
1738253090.262;200;21.09;42985.60
1738253090.313;200;19.37;38095.33
1738253090.362;200;19.37;38095.33
1738253090.412;200;19.37;38095.33
1738253090.463;200;19.37;38095.33
1738253090.513;200;21.81;45046.87
1738253090.564;200;19.48;38398.27
1738253090.613;200;22.27;46339.07
1738253090.663;200;22.27;46339.07
1738253090.714;200;22.27;46339.07
1738253090.764;200;22.27;46339.07
1738253090.814;200;21.39;43838.93
1738253090.863;200;19.00;37032.27
1738253090.913;200;18.50;35623.73
1738253090.964;200;18.50;35623.73
1738253091.013;200;18.50;35623.73
1738253091.063;200;18.50;35623.73
1738253091.114;200;20.48;41256.54
1738253091.163;200;19.53;38556.46
1738253091.214;200;20.01;39910.13
1738253091.263;200;21.36;43767.67
1738253091.313;200;21.36;43767.67
1738253091.363;200;21.36;43767.67
1738253091.414;200;20.17;40366.27
1738253091.464;200;19.57;38658.60
1738253091.513;200;20.49;41286.13
1738253091.564;200;18.99;36996.54
1738253091.613;200;18.99;36996.54
1738253091.665;200;18.99;36996.54
1738253091.715;200;18.99;36996.54
1738253091.765;200;19.62;38792.00
1738253091.815;200;20.11;40193.07
1738253091.865;200;19.36;38078.13
1738253091.915;200;19.36;38078.13
1738253091.965;200;19.36;38078.13
1738253092.015;200;19.36;38078.13
1738253092.064;200;20.26;40615.07
1738253092.115;200;20.48;41244.00
1738253092.165;200;19.82;39363.93
1738253092.216;200;19.82;39363.93
1738253092.266;200;19.82;39363.93
1738253092.316;200;18.96;36938.33
1738253092.367;200;19.50;38449.46
1738253092.416;200;19.19;37575.20
1738253092.466;200;21.55;44294.60
1738253092.517;200;21.55;44294.60
1738253092.566;200;21.55;44294.60
1738253092.617;200;21.55;44294.60
1738253092.666;200;20.47;41218.00
1738253092.716;200;21.89;45255.60
1738253092.767;200;22.37;46631.13
1738253092.816;200;22.37;46631.13
1738253092.866;200;22.37;46631.13
1738253092.917;200;21.37;43800.80
1738253092.966;200;19.88;39540.80
1738253093.016;200;20.12;40215.67
1738253093.066;200;20.12;40240.87
1738253093.117;200;20.12;40240.87
1738253093.167;200;20.12;40240.87
1738253093.218;200;22.00;45582.27
1738253093.267;200;18.70;36180.93
1738253093.318;200;18.70;36180.93
1738253093.368;200;18.70;36180.93
1738253093.418;200;18.70;36180.93
1738253093.468;200;20.39;41007.73
1738253093.518;200;20.04;39994.40
1738253093.567;200;20.27;40668.00
1738253093.617;200;20.27;40668.00
1738253093.669;200;20.27;40668.00
1738253093.718;200;20.27;40668.00
1738253093.770;200;20.07;40085.73
1738253093.819;200;20.66;41776.54
1738253093.869;200;20.44;41146.93
1738253093.919;200;20.44;41146.93
1738253093.969;200;20.44;41146.93
1738253094.020;200;20.44;41146.93
1738253094.070;200;21.52;44203.46
1738253094.120;200;22.30;46426.80
1738253094.169;200;20.20;40461.13
1738253094.220;200;20.20;40461.13
1738253094.269;200;20.20;40461.13
1738253094.320;200;19.73;39124.67
1738253094.370;200;20.68;41814.13
1738253094.421;200;21.05;42879.20
1738253094.471;200;19.74;39141.60
1738253094.521;200;19.74;39141.60
1738253094.570;200;19.74;39141.60
1738253094.621;200;21.02;42787.33
1738253094.671;200;22.08;45795.93
1738253094.721;200;21.34;43691.93
1738253094.770;200;21.34;43691.93
1738253094.820;200;21.34;43691.93
1738253094.870;200;21.34;43691.93
1738253094.922;200;21.12;43064.54
1738253094.971;200;22.63;47367.07
1738253095.022;200;21.39;43836.87
1738253095.073;200;21.48;44109.27
1738253095.123;200;21.48;44109.27
1738253095.172;200;21.48;44109.27
1738253095.223;200;22.24;46257.93
1738253095.273;200;19.40;38171.33
1738253095.324;200;19.59;38733.00
1738253095.373;200;21.79;44980.80
1738253095.423;200;21.79;44980.80
1738253095.474;200;21.79;44980.80
1738253095.524;200;21.38;43821.33
1738253095.574;200;21.67;44637.80
1738253095.624;200;19.60;38761.80
1738253095.673;200;21.47;44067.20
1738253095.724;200;21.47;44067.20
1738253095.774;200;21.47;44067.20
1738253095.825;200;19.77;39225.07
1738253095.875;200;20.08;40117.33
1738253095.925;200;19.54;38566.54
1738253095.976;200;20.82;42215.73
1738253096.026;200;20.82;42215.73
1738253096.076;200;20.82;42215.73
1738253096.125;200;19.28;37844.13
1738253096.175;200;20.76;42051.60
1738253096.225;200;19.48;38393.07
1738253096.280;200;19.48;38393.07
1738253096.330;200;19.48;38393.07
1738253096.379;200;19.48;38393.07
1738253096.429;200;20.04;39989.54
1738253096.480;200;22.25;46293.60
1738253096.529;200;21.16;43203.73
1738253096.580;200;20.88;42399.07
1738253096.630;200;20.88;42399.07
1738253096.680;200;20.88;42399.07
1738253096.730;200;22.98;48378.54
1738253096.780;200;21.93;45376.20
1738253096.830;200;18.79;36446.40
1738253096.880;200;18.79;36446.40
1738253096.930;200;18.79;36446.40
1738253096.981;200;18.79;36446.40
1738253097.031;200;21.37;43801.07
1738253097.081;200;20.11;40205.33
1738253097.130;200;20.23;40553.07
1738253097.182;200;20.23;40553.07
1738253097.232;200;20.23;40553.07
1738253097.281;200;20.23;40553.07
1738253097.331;200;20.53;41393.33
1738253097.381;200;20.83;42237.54
1738253097.432;200;21.03;42816.46
1738253097.482;200;21.03;42816.46
1738253097.532;200;21.03;42816.46
1738253097.582;200;21.03;42816.46
1738253097.633;200;22.08;45821.20
1738253097.683;200;20.91;42488.13
1738253097.735;200;20.82;42225.60
1738253244.818;157;10.00;39200.40
1738253244.868;151;10.00;37110.93
1738253244.918;145;10.00;35119.20
1738253244.968;145;10.00;35119.20
1738253245.018;156;10.00;38837.07
1738253245.068;156;10.00;38837.07
1738253245.118;156;10.00;38837.07
1738253245.168;156;10.00;38849.54
1738253245.218;153;10.00;37818.13
1738253245.269;171;10.00;44097.13
1738253245.319;159;10.00;39984.00
1738253245.369;159;10.00;39984.00
1738253245.418;159;10.00;39984.00
1738253245.469;154;10.00;38321.73
1738253245.519;167;10.00;42781.07
1738253245.570;153;10.00;37711.20
1738253245.620;153;10.00;37711.20
1738253245.671;153;10.00;37711.20
1738253245.720;153;10.00;37711.20
1738253245.770;150;10.00;36792.80
1738253245.821;147;10.00;35600.54
1738253245.871;145;10.00;34982.80
1738253245.921;145;10.00;34982.80
1738253245.971;145;10.00;34982.80
1738253246.021;145;10.00;34982.80
1738253246.072;156;10.00;38845.33
1738253246.121;175;10.00;45569.80
1738253246.172;180;10.00;47142.13
1738253246.221;180;10.00;47142.13
1738253246.272;180;10.00;47142.13
1738253246.322;180;10.00;47142.13
1738253246.372;166;10.00;42504.13
1738253246.421;149;10.00;36540.13
1738253246.472;149;10.00;36363.73
1738253246.521;149;10.00;36363.73
1738253246.572;149;10.00;36363.73
1738253246.622;149;10.00;36363.73
1738253246.672;161;10.00;40601.33
1738253246.722;175;10.00;45671.67
1738253246.773;159;10.00;39913.27
1738253246.822;159;10.00;39913.27
1738253246.872;159;10.00;39913.27
1738253246.922;159;10.00;39913.27
1738253246.973;159;10.00;39844.93
1738253247.023;162;10.00;41068.13
1738253247.073;175;10.00;45487.60
1738253247.123;175;10.00;45487.60
1738253247.173;175;10.00;45487.60
1738253247.223;175;10.00;45487.60
1738253247.273;158;10.00;39625.60
1738253247.323;171;10.00;44097.46
1738253247.373;161;10.00;40602.13
1738253247.423;172;10.00;44370.40
1738253247.473;172;10.00;44370.40
1738253247.524;172;10.00;44370.40
1738253247.573;170;10.00;43883.07
1738253247.623;160;10.00;40156.67
1738253247.673;160;10.00;40156.67
1738253247.724;170;10.00;43919.46
1738253247.773;170;10.00;43919.46
1738253247.823;170;10.00;43919.46
1738253247.874;170;10.00;43919.46
1738253247.923;170;10.00;43919.46
1738253247.974;167;10.00;42711.73
1738253248.024;170;10.00;43907.33
1738253248.074;170;10.00;43846.00
1738253248.125;166;10.00;42463.46
1738253248.174;166;10.00;42463.46
1738253248.225;166;10.00;42463.46
1738253248.274;166;10.00;42463.46
1738253248.325;156;10.00;38969.07
1738253248.375;167;10.00;42793.60
1738253248.425;175;10.00;45595.33
1738253248.476;158;10.00;39573.60
1738253248.525;158;10.00;39573.60
1738253248.576;158;10.00;39573.60
1738253248.626;158;10.00;39573.60
1738253248.676;171;10.00;44007.67
1738253248.726;175;10.00;45465.00
1738253248.776;176;10.00;46009.46
1738253248.826;164;10.00;41749.33
1738253248.876;164;10.00;41749.33
1738253248.926;164;10.00;41749.33
1738253248.975;164;10.00;41749.33
1738253249.029;174;10.00;45089.13
1738253249.075;174;10.00;45089.13
1738253249.126;148;10.00;36137.93
1738253249.177;149;10.00;36558.93
1738253249.227;149;10.00;36558.93
1738253249.277;149;10.00;36558.93
1738253249.327;149;10.00;36558.93
1738253249.376;161;10.00;40518.67
1738253249.426;166;10.00;42368.73
1738253249.477;175;10.00;45617.73
1738253249.527;174;10.00;45098.40
1738253249.577;174;10.00;45098.40
1738253249.627;174;10.00;45098.40
1738253249.677;174;10.00;45098.40
1738253249.727;153;10.00;37927.13
1738253249.777;154;10.00;38266.40
1738253249.828;157;10.00;39119.60
1738253249.877;157;10.00;39119.60
1738253249.928;157;10.00;39119.60
1738253249.977;157;10.00;39119.60
1738253250.027;172;10.00;44456.54
1738253250.078;161;10.00;40742.40
1738253250.128;160;10.00;40168.27
1738253250.178;160;10.00;40168.27
1738253250.228;160;10.00;40168.27
1738253250.278;160;10.00;40168.27
1738253250.329;167;10.00;42857.07
1738253250.379;167;10.00;42700.27
1738253250.429;176;10.00;46003.20
1738253250.479;175;10.00;45698.20
1738253250.529;175;10.00;45698.20
1738253250.579;175;10.00;45698.20
1738253250.629;175;10.00;45698.20
1738253250.680;165;10.00;41885.46
1738253250.729;154;10.00;38109.60
1738253250.780;172;10.00;44382.60
1738253250.830;153;10.00;37856.67
1738253250.880;153;10.00;37856.67
1738253250.929;153;10.00;37856.67
1738253250.979;153;10.00;37856.67
1738253251.030;160;10.00;40357.07
1738253251.080;162;10.00;41128.54
1738253251.131;160;10.00;40133.87
1738253251.180;160;10.00;40133.87
1738253251.231;160;10.00;40133.87
1738253251.281;160;10.00;40133.87
1738253251.330;160;10.00;40133.87
1738253251.381;173;10.00;44694.54
1738253251.430;161;10.00;40651.20
1738253251.480;161;10.00;40562.00
1738253251.531;172;10.00;44393.87
1738253251.581;172;10.00;44393.87
1738253251.631;172;10.00;44393.87
1738253251.681;172;10.00;44393.87
1738253251.731;156;10.00;38984.80
1738253251.781;160;10.00;40408.27
1738253251.838;162;10.00;40920.54
1738253251.883;162;10.00;40920.54
1738253251.933;157;10.00;39300.80
1738253251.983;157;10.00;39300.80
1738253252.033;157;10.00;39300.80
1738253252.083;157;10.00;39300.80
1738253252.133;148;10.00;36196.00
1738253252.184;152;10.00;37590.54
1738253252.234;168;10.00;43150.93
1738253252.283;166;10.00;42349.73
1738253252.333;166;10.00;42349.73
1738253252.384;166;10.00;42349.73
1738253252.434;166;10.00;42349.73
1738253252.485;159;10.00;39885.60
1738253252.535;165;10.00;42063.07
1738253252.585;147;10.00;35742.27
1738253252.634;164;10.00;41724.54
1738253252.684;164;10.00;41724.54
1738253252.734;164;10.00;41724.54
1738253252.785;164;10.00;41724.54
1738253252.835;154;10.00;38201.33
1738253252.884;150;10.00;36780.80
1738253252.934;175;10.00;45492.40
1738253252.985;175;10.00;45492.40
1738253253.034;175;10.00;45492.40
1738253253.084;175;10.00;45492.40
1738253253.135;175;10.00;45492.40
1738253253.185;158;10.00;39761.07
1738253253.235;176;10.00;45930.40
1738253253.285;176;10.00;45930.40
1738253253.335;150;10.00;36646.67
1738253253.386;154;10.00;38140.00
1738253253.436;154;10.00;38140.00
1738253253.486;154;10.00;38140.00
1738253253.535;154;10.00;38140.00
1738253253.585;176;10.00;45787.27
1738253253.635;159;10.00;40017.07
1738253253.686;165;10.00;41914.40
1738253272.919;159;10.00;39975.33
1738253272.969;149;10.00;36582.46
1738253273.019;149;10.00;36582.46
1738253273.069;149;10.00;36582.46
1738253273.119;156;10.00;39042.54
1738253273.169;154;10.00;38303.20
1738253273.219;159;10.00;40096.00
1738253273.269;162;10.00;40855.33
1738253273.320;162;10.00;40855.33
1738253273.370;162;10.00;40855.33
1738253273.419;163;10.00;41209.40
1738253273.470;161;10.00;40611.46
1738253273.520;161;10.00;40562.80
1738253273.570;161;10.00;40562.80
1738253273.620;161;10.00;40562.80
1738253273.670;161;10.00;40562.80
1738253273.720;173;10.00;44689.27
1738253273.770;154;10.00;38361.87
1738253273.820;156;10.00;38986.60
1738253273.870;156;10.00;38986.60
1738253273.920;156;10.00;38986.60
1738253273.970;156;10.00;38986.60
1738253274.019;155;10.00;38612.54
1738253274.070;152;10.00;37652.54
1738253274.121;162;10.00;41079.40
1738253274.171;162;10.00;41079.40
1738253274.221;162;10.00;41079.40
1738253274.271;162;10.00;41079.40
1738253274.322;158;10.00;39711.73
1738253274.372;152;10.00;37401.07
1738253274.421;166;10.00;42347.33
1738253274.472;166;10.00;42347.33
1738253274.522;166;10.00;42347.33
1738253274.572;166;10.00;42347.33
1738253274.622;174;10.00;45098.40
1738253274.672;147;10.00;35647.20
1738253274.722;162;10.00;41108.00
1738253274.772;162;10.00;41108.00
1738253274.822;162;10.00;41108.00
1738253274.872;162;10.00;41108.00
1738253274.921;171;10.00;44215.13
1738253274.973;149;10.00;36282.13
1738253275.023;156;10.00;38863.87
1738253275.072;156;10.00;38863.87
1738253275.122;156;10.00;38863.87
1738253275.173;156;10.00;38863.87
1738253275.223;154;10.00;38110.93
1738253275.273;168;10.00;43022.27
1738253275.323;156;10.00;39018.27
1738253275.373;156;10.00;39018.27
1738253275.424;156;10.00;39018.27
1738253275.473;156;10.00;39018.27
1738253275.523;162;10.00;40993.60
1738253275.573;155;10.00;38411.20
1738253275.624;151;10.00;37278.93
1738253275.673;174;10.00;45077.46
1738253275.724;174;10.00;45077.46
1738253275.773;174;10.00;45077.46
1738253275.823;174;10.00;45077.46
1738253275.874;162;10.00;41032.13
1738253275.924;145;10.00;35215.46
1738253275.975;171;10.00;44234.46
1738253276.025;165;10.00;42086.33
1738253276.076;165;10.00;42086.33
1738253276.125;165;10.00;42086.33
1738253276.176;165;10.00;42086.33
1738253276.226;160;10.00;40418.73
1738253276.276;148;10.00;36014.40
1738253276.325;157;10.00;39399.33
1738253276.375;172;10.00;44326.60
1738253276.427;172;10.00;44326.60
1738253276.478;172;10.00;44326.60
1738253276.527;172;10.00;44326.60
1738253276.578;172;10.00;44627.87
1738253276.628;178;10.00;46675.46
1738253276.678;153;10.00;37930.27
1738253276.728;153;10.00;37930.27
1738253276.778;153;10.00;37930.27
1738253276.828;153;10.00;37930.27
1738253276.878;153;10.00;37930.27
1738253276.928;161;10.00;40649.87
1738253276.978;171;10.00;44089.73
1738253277.034;171;10.00;44089.73
1738253277.079;155;10.00;38372.00
1738253277.129;146;10.00;35267.60
1738253277.180;146;10.00;35267.60
1738253277.230;146;10.00;35267.60
1738253277.280;146;10.00;35267.60
1738253277.330;151;10.00;37305.07
1738253277.380;154;10.00;38303.13
1738253277.430;153;10.00;37829.87
1738253277.480;169;10.00;43361.60
1738253277.530;169;10.00;43361.60
1738253277.581;169;10.00;43361.60
1738253277.631;174;10.00;45166.93
1738253277.682;164;10.00;41556.07
1738253277.732;147;10.00;35792.27
1738253277.781;172;10.00;44487.73
1738253277.831;172;10.00;44487.73
1738253277.882;172;10.00;44487.73
1738253277.932;172;10.00;44487.73
1738253277.982;172;10.00;44487.73
1738253278.033;151;10.00;37103.73
1738253278.083;147;10.00;35642.93
1738253278.132;161;10.00;40730.67
1738253278.184;169;10.00;43567.46
1738253278.233;169;10.00;43567.46
1738253278.284;169;10.00;43567.46
1738253278.334;152;10.00;37382.40
1738253278.383;155;10.00;38589.07
1738253278.433;160;10.00;40164.54
1738253278.485;149;10.00;36411.73
1738253278.534;168;10.00;43073.60
1738253278.584;168;10.00;43073.60
1738253278.635;168;10.00;43073.60
1738253278.686;168;10.00;43073.60
1738253278.735;174;10.00;45336.54
1738253278.786;176;10.00;45799.27
1738253278.837;164;10.00;41802.60
1738253278.887;170;10.00;43849.33
1738253278.937;170;10.00;43849.33
1738253278.987;170;10.00;43849.33
1738253279.037;170;10.00;43849.33
1738253279.087;170;10.00;43849.33
1738253279.137;167;10.00;42806.27
1738253279.187;170;10.00;43970.54
1738253279.237;153;10.00;37673.73
1738253279.287;161;10.00;40613.33
1738253279.337;161;10.00;40613.33
1738253279.387;161;10.00;40613.33
1738253279.437;167;10.00;42774.07
1738253279.487;169;10.00;43584.80
1738253279.537;158;10.00;39571.46
1738253279.587;169;10.00;43500.80
1738253279.638;169;10.00;43500.80
1738253279.687;169;10.00;43500.80
1738253279.737;169;10.00;43500.80
1738253279.787;169;10.00;43500.80
1738253279.837;150;10.00;36771.20
1738253279.888;153;10.00;37761.54
1738253279.937;156;10.00;38986.67
1738253279.988;168;10.00;43015.46
1738253280.038;162;10.00;40928.54
1738253280.088;162;10.00;40928.54
1738253280.138;162;10.00;40928.54
1738253280.188;162;10.00;40928.54
1738253280.238;150;10.00;36633.87
1738253280.288;149;10.00;36564.87
1738253280.338;168;10.00;42993.73
1738253280.388;154;10.00;38097.87
1738253280.438;177;10.00;46330.60
1738253280.488;177;10.00;46330.60
1738253280.538;177;10.00;46330.60
1738253280.588;177;10.00;46330.60
1738253280.638;172;10.00;44620.93
1738253280.688;173;10.00;44740.33
1738253280.738;160;10.00;40203.33
1738253280.789;174;10.00;45132.27
1738253280.838;169;10.00;43405.07
1738253280.888;169;10.00;43405.07
1738253280.939;169;10.00;43405.07
1738253280.988;169;10.00;43405.07
1738253281.038;173;10.00;44848.67
1738253281.089;174;10.00;45353.20
1738253281.138;157;10.00;39278.33
1738253281.189;153;10.00;37969.87
1738253281.238;153;10.00;37969.87
1738253281.289;153;10.00;37969.87
1738253281.339;153;10.00;37969.87
1738253281.389;153;10.00;37969.87
1738253281.439;171;10.00;43994.93
1738253281.490;154;10.00;38153.73
1738253281.539;148;10.00;36242.67
1738253281.589;161;10.00;40506.40
1738253281.640;161;10.00;40655.73
1738253281.689;161;10.00;40655.73
1738253281.740;161;10.00;40655.73
1738253281.790;161;10.00;40655.73
1738253281.839;173;10.00;44913.13
1738253281.891;167;10.00;42896.54
1738253281.940;150;10.00;36652.93
1738253281.991;158;10.00;39647.46
1738253282.041;152;10.00;37618.67
1738253282.091;152;10.00;37618.67
1738253282.141;152;10.00;37618.67
1738253282.192;152;10.00;37618.67
1738253282.242;153;10.00;37930.67
1738253282.292;145;10.00;35086.13
1738253282.342;178;10.00;46686.67
1738253301.865;154;10.00;38240.54
1738253301.916;154;10.00;38240.54
1738253301.965;154;10.00;38240.54
1738253302.016;154;10.00;38240.54
1738253302.066;147;10.00;35820.80
1738253302.116;147;10.00;35820.80
1738253302.166;153;10.00;37930.93
1738253302.216;160;10.00;40412.27
1738253302.266;160;10.00;40412.27
1738253302.316;160;10.00;40412.27
1738253302.366;163;10.00;41274.67
1738253302.416;151;10.00;37210.27
1738253302.466;151;10.00;37175.20
1738253302.516;163;10.00;41381.60
1738253302.566;163;10.00;41381.60
1738253302.617;163;10.00;41381.60
1738253302.666;163;10.00;41381.60
1738253302.717;156;10.00;38816.80
1738253302.767;153;10.00;37940.40
1738253302.817;168;10.00;43158.00
1738253302.866;160;10.00;40370.13
1738253302.918;160;10.00;40370.13
1738253302.967;160;10.00;40370.13
1738253303.017;160;10.00;40370.13
1738253303.067;174;10.00;45293.00
1738253303.118;149;10.00;36431.73
1738253303.169;146;10.00;35320.40
1738253303.219;146;10.00;35320.40
1738253303.269;146;10.00;35320.40
1738253303.319;146;10.00;35320.40
1738253303.369;169;10.00;43577.60
1738253303.419;151;10.00;37132.80
1738253303.469;162;10.00;40961.00
1738253303.519;167;10.00;42577.73
1738253303.569;167;10.00;42577.73
1738253303.619;167;10.00;42577.73
1738253303.669;167;10.00;42577.73
1738253303.719;167;10.00;42577.73
1738253303.769;161;10.00;40758.40
1738253303.819;154;10.00;38362.54
1738253303.869;152;10.00;37333.73
1738253303.920;152;10.00;37333.73
1738253303.969;152;10.00;37333.73
1738253304.020;152;10.00;37333.73
1738253304.071;175;10.00;45694.93
1738253304.121;154;10.00;38286.67
1738253304.170;151;10.00;37002.20
1738253304.221;174;10.00;45145.20
1738253304.271;174;10.00;45145.20
1738253304.321;174;10.00;45145.20
1738253304.371;174;10.00;45145.20
1738253304.421;174;10.00;45145.20
1738253304.471;161;10.00;40570.13
1738253304.522;176;10.00;46004.87
1738253304.571;166;10.00;42567.46
1738253304.622;163;10.00;41506.67
1738253304.672;163;10.00;41506.67
1738253304.722;163;10.00;41506.67
1738253304.772;172;10.00;44493.60
1738253304.822;162;10.00;40925.20
1738253304.873;149;10.00;36457.60
1738253304.922;173;10.00;44985.54
1738253304.972;164;10.00;41694.13
1738253305.022;164;10.00;41694.13
1738253305.072;164;10.00;41694.13
1738253305.122;164;10.00;41694.13
1738253305.172;164;10.00;41731.20
1738253305.222;161;10.00;40553.33
1738253305.277;151;10.00;37221.46
1738253305.323;165;10.00;42178.27
1738253305.373;153;10.00;37715.46
1738253305.423;173;10.00;44718.33
1738253305.473;173;10.00;44718.33
1738253305.523;173;10.00;44718.33
1738253305.573;173;10.00;44718.33
1738253305.624;152;10.00;37563.20
1738253305.673;153;10.00;37871.67
1738253305.723;162;10.00;41148.80
1738253305.773;164;10.00;41560.00
1738253305.824;146;10.00;35436.27
1738253305.874;146;10.00;35436.27
1738253305.924;146;10.00;35436.27
1738253305.974;151;10.00;37267.13
1738253306.025;176;10.00;45794.80
1738253306.074;153;10.00;37692.00
1738253306.124;153;10.00;37996.80
1738253306.174;157;10.00;39160.80
1738253306.225;156;10.00;38722.67
1738253306.274;156;10.00;38722.67
1738253306.325;156;10.00;38722.67
1738253306.375;173;10.00;44734.13
1738253306.424;148;10.00;36167.87
1738253306.475;147;10.00;35916.80
1738253306.525;161;10.00;40665.60
1738253306.575;161;10.00;40665.60
1738253306.625;161;10.00;40665.60
1738253306.675;161;10.00;40665.60
1738253306.726;161;10.00;40665.60
1738253306.776;167;10.00;42584.54
1738253306.825;158;10.00;39725.73
1738253306.876;173;10.00;44945.27
1738253306.926;173;10.00;44874.46
1738253306.976;173;10.00;44874.46
1738253307.026;173;10.00;44874.46
1738253307.075;171;10.00;43984.87
1738253307.126;163;10.00;41464.00
1738253307.176;158;10.00;39464.27
1738253307.226;157;10.00;39091.13
1738253307.276;173;10.00;44919.07
1738253307.325;173;10.00;44919.07
1738253307.377;173;10.00;44919.07
1738253307.427;173;10.00;44919.07
1738253307.477;168;10.00;43071.33
1738253307.527;154;10.00;38349.33
1738253307.577;157;10.00;39280.27
1738253307.627;172;10.00;44556.46
1738253307.678;159;10.00;40032.54
1738253307.728;159;10.00;40032.54
1738253307.777;159;10.00;40032.54
1738253307.828;174;10.00;45362.27
1738253307.877;158;10.00;39549.07
1738253307.927;173;10.00;45009.27
1738253307.977;163;10.00;41192.80
1738253308.029;163;10.00;41192.80
1738253308.078;163;10.00;41192.80
1738253308.128;163;10.00;41192.80
1738253308.179;165;10.00;42125.27
1738253308.229;174;10.00;45236.73
1738253308.278;177;10.00;46291.46
1738253308.329;149;10.00;36343.60
1738253308.378;155;10.00;38512.13
1738253308.428;155;10.00;38512.13
1738253308.479;155;10.00;38512.13
1738253308.529;155;10.00;38512.13
1738253308.579;162;10.00;41143.20
1738253308.628;175;10.00;45543.80
1738253308.679;160;10.00;40274.33
1738253308.729;160;10.00;40274.33
1738253308.779;160;10.00;40274.33
1738253308.829;160;10.00;40274.33
1738253308.878;171;10.00;44300.60
1738253308.929;153;10.00;37794.13
1738253308.979;145;10.00;35214.40
1738253309.029;145;10.00;35214.40
1738253309.079;145;10.00;35214.40
1738253309.129;145;10.00;35214.40
1738253309.180;174;10.00;45138.07
1738253309.230;175;10.00;45419.20
1738253309.280;163;10.00;41371.73
1738253309.330;153;10.00;37971.73
1738253309.380;153;10.00;37971.73
1738253309.430;153;10.00;37971.73
1738253309.480;153;10.00;37971.73
1738253309.531;168;10.00;43184.67
1738253309.581;174;10.00;45118.00
1738253309.631;154;10.00;38332.20
1738253309.680;164;10.00;41788.00
1738253309.730;164;10.00;41788.00
1738253309.780;164;10.00;41788.00
1738253309.831;164;10.00;41788.00
1738253309.880;154;10.00;38041.33
1738253309.930;149;10.00;36470.93
1738253309.981;177;10.00;46112.60
1738253310.031;180;10.00;47130.20
1738253310.081;180;10.00;47130.20
1738253310.132;180;10.00;47130.20
1738253310.181;169;10.00;43421.07
1738253310.232;155;10.00;38405.20
1738253310.282;164;10.00;41668.87
1738253310.332;172;10.00;44470.13
1738253310.382;172;10.00;44470.13
1738253310.432;172;10.00;44470.13
1738253310.482;172;10.00;44470.13
1738253310.531;172;10.00;44470.13
1738253310.583;158;10.00;39499.20
1738253310.633;159;10.00;39978.13
1738253310.683;147;10.00;35682.13
1738253310.733;147;10.00;35682.13
1738253310.784;147;10.00;35682.13
1738253310.833;147;10.00;35682.13
1738253310.884;161;10.00;40815.73
1738253310.935;149;10.00;36505.07
1738253310.984;176;10.00;45981.60
1738253311.035;176;10.00;45981.60
1738253311.085;176;10.00;45981.60
1738253311.135;176;10.00;45981.60
1738253311.185;155;10.00;38485.87
1738253311.236;152;10.00;37621.20
1738253311.286;175;10.00;45704.67
1738253460.246;154;20.00;38222.07
1738253460.296;148;20.00;36045.60
1738253460.346;153;20.00;37952.13
1738253460.396;153;20.00;37952.13
1738253460.446;153;20.00;37952.13
1738253460.496;153;20.00;37952.13
1738253460.546;155;20.00;38654.93
1738253460.596;168;20.00;43143.67
1738253460.647;171;20.00;44243.87
1738253460.697;171;20.00;44243.87
1738253460.747;171;20.00;44243.87
1738253460.797;171;20.00;44243.87
1738253460.847;171;20.00;44060.54
1738253460.898;174;20.00;45362.80
1738253460.947;174;20.00;45072.93
1738253460.997;174;20.00;45072.93
1738253461.047;174;20.00;45072.93
1738253461.097;174;20.00;45072.93
1738253461.148;151;20.00;37101.07
1738253461.198;157;20.00;39245.60
1738253461.249;152;20.00;37454.13
1738253461.299;152;20.00;37454.13
1738253461.349;152;20.00;37454.13
1738253461.399;152;20.00;37454.13
1738253461.449;169;20.00;43565.73
1738253461.500;154;20.00;38106.40
1738253461.550;150;20.00;36948.27
1738253461.599;150;20.00;36948.27
1738253461.649;150;20.00;36948.27
1738253461.699;150;20.00;36948.27
1738253461.750;180;20.00;47276.40
1738253461.800;155;20.00;38398.13
1738253461.850;173;20.00;44902.07
1738253461.901;173;20.00;44902.07
1738253461.950;173;20.00;44902.07
1738253462.001;173;20.00;44902.07
1738253462.052;168;20.00;43264.13
1738253462.102;155;20.00;38598.40
1738253462.151;165;20.00;42075.54
1738253462.201;174;20.00;45170.13
1738253462.251;174;20.00;45170.13
1738253462.301;174;20.00;45170.13
1738253462.352;168;20.00;43167.80
1738253462.402;154;20.00;38099.20
1738253462.452;157;20.00;39254.00
1738253462.502;172;20.00;44595.46
1738253462.552;172;20.00;44595.46
1738253462.602;172;20.00;44595.46
1738253462.652;160;20.00;40242.67
1738253462.702;172;20.00;44657.87
1738253462.752;162;20.00;40942.13
1738253462.803;162;20.00;41099.13
1738253462.852;162;20.00;41099.13
1738253462.903;162;20.00;41099.13
1738253462.953;169;20.00;43448.73
1738253463.003;152;20.00;37335.73
1738253463.064;156;20.00;38986.93
1738253463.110;166;20.00;42223.00
1738253463.159;166;20.00;42223.00
1738253463.209;166;20.00;42223.00
1738253463.260;172;20.00;44326.46
1738253463.310;173;20.00;44981.73
1738253463.360;167;20.00;42769.87
1738253463.411;161;20.00;40509.67
1738253463.460;161;20.00;40509.67
1738253463.510;161;20.00;40509.67
1738253463.561;161;20.00;40509.67
1738253463.611;158;20.00;39465.07
1738253463.660;174;20.00;45235.46
1738253463.712;173;20.00;44898.54
1738253463.761;175;20.00;45491.73
1738253463.811;175;20.00;45491.73
1738253463.861;175;20.00;45491.73
1738253463.912;175;20.00;45491.73
1738253463.961;159;20.00;40061.60
1738253464.012;156;20.00;39047.20
1738253464.061;170;20.00;43902.20
1738253464.111;175;20.00;45420.80
1738253464.161;175;20.00;45420.80
1738253464.212;175;20.00;45420.80
1738253464.261;159;20.00;39933.46
1738253464.311;161;20.00;40763.33
1738253464.361;175;20.00;45625.87
1738253464.412;156;20.00;38795.87
1738253464.462;156;20.00;38795.87
1738253464.512;156;20.00;38795.87
1738253464.562;155;20.00;38635.87
1738253464.661;160;20.00;40468.00
1738253464.711;171;20.00;44038.13
1738253464.762;171;20.00;44038.13
1738253464.812;171;20.00;44038.13
1738253464.862;171;20.00;44038.13
1738253464.912;171;20.00;44038.13
1738253464.962;159;20.00;40104.93
1738253465.013;155;20.00;38708.27
1738253465.063;177;20.00;46385.20
1738253465.113;170;20.00;43766.20
1738253465.163;170;20.00;43766.20
1738253465.213;170;20.00;43766.20
1738253465.264;169;20.00;43372.80
1738253465.314;164;20.00;41696.00
1738253465.364;150;20.00;36750.13
1738253465.414;150;20.00;36750.13
1738253465.465;150;20.00;36750.13
1738253465.514;150;20.00;36750.13
1738253465.564;175;20.00;45595.80
1738253465.615;172;20.00;44348.67
1738253465.665;166;20.00;42397.93
1738253465.715;149;20.00;36480.54
1738253465.765;149;20.00;36480.54
1738253465.814;149;20.00;36480.54
1738253465.865;153;20.00;37939.20
1738253465.915;149;20.00;36371.87
1738253465.966;169;20.00;43343.33
1738253466.015;169;20.00;43343.33
1738253466.065;169;20.00;43343.33
1738253466.115;169;20.00;43343.33
1738253466.165;166;20.00;42480.40
1738253466.216;165;20.00;42124.00
1738253466.266;165;20.00;42124.00
1738253466.315;165;20.00;42124.00
1738253466.366;165;20.00;42124.00
1738253466.416;165;20.00;42124.00
1738253466.467;169;20.00;43563.20
1738253466.517;152;20.00;37494.93
1738253466.567;153;20.00;37927.46
1738253466.617;153;20.00;37927.46
1738253466.667;153;20.00;37927.46
1738253466.717;153;20.00;37927.46
1738253466.767;172;20.00;44615.46
1738253466.817;174;20.00;45197.33
1738253466.866;186;20.00;49550.93
1738253466.917;186;20.00;49550.93
1738253466.967;186;20.00;49550.93
1738253467.017;186;20.00;49550.93
1738253467.067;159;20.00;39822.20
1738253467.117;156;20.00;39052.67
1738253467.167;168;20.00;43270.60
1738253467.217;168;20.00;43270.60
1738253467.267;168;20.00;43270.60
1738253467.318;168;20.00;43270.60
1738253467.368;167;20.00;42629.33
1738253467.418;169;20.00;43354.73
1738253467.468;151;20.00;37196.27
1738253467.519;151;20.00;37196.27
1738253467.569;151;20.00;37196.27
1738253467.618;151;20.00;37196.27
1738253467.668;160;20.00;40126.13
1738253467.718;174;20.00;45155.20
1738253467.768;155;20.00;38506.93
1738253467.819;155;20.00;38506.93
1738253467.869;155;20.00;38506.93
1738253467.919;155;20.00;38506.93
1738253467.969;165;20.00;41973.73
1738253468.019;169;20.00;43283.67
1738253468.068;158;20.00;39597.33
1738253468.119;150;20.00;36831.13
1738253468.169;150;20.00;36831.13
1738253468.219;150;20.00;36831.13
1738253468.269;162;20.00;40834.93
1738253468.320;146;20.00;35336.13
1738253468.369;166;20.00;42562.80
1738253487.948;156;20.00;38884.00
1738253487.998;156;20.00;38884.00
1738253488.048;156;20.00;38884.00
1738253488.098;160;20.00;40181.54
1738253488.149;153;20.00;38013.46
1738253488.198;174;20.00;45316.40
1738253488.249;171;20.00;44006.93
1738253488.299;171;20.00;44006.93
1738253488.348;171;20.00;44006.93
1738253488.399;171;20.00;44006.93
1738253488.449;162;20.00;40977.33
1738253488.499;173;20.00;44788.27
1738253488.550;153;20.00;37961.73
1738253488.600;153;20.00;37961.73
1738253488.650;153;20.00;37961.73
1738253488.699;153;20.00;37961.73
1738253488.749;153;20.00;37961.73
1738253488.800;148;20.00;36191.46
1738253488.849;168;20.00;43211.46
1738253488.901;151;20.00;37114.00
1738253488.951;151;20.00;37114.00
1738253489.001;151;20.00;37114.00
1738253489.050;151;20.00;37114.00
1738253489.102;173;20.00;44876.13
1738253489.151;158;20.00;39580.13
1738253489.201;171;20.00;44223.73
1738253489.252;175;20.00;45524.20
1738253489.302;175;20.00;45524.20
1738253489.353;175;20.00;45524.20
1738253489.402;175;20.00;45524.20
1738253489.452;159;20.00;39853.07
1738253489.502;160;20.00;40160.00
1738253489.552;154;20.00;38331.73
1738253489.602;151;20.00;37083.73
1738253489.652;151;20.00;37083.73
1738253489.702;151;20.00;37083.73
1738253489.752;151;20.00;37083.73
1738253489.802;147;20.00;35767.87
1738253489.852;149;20.00;36583.73
1738253489.902;174;20.00;45273.00
1738253489.952;174;20.00;45273.00
1738253490.003;174;20.00;45273.00
1738253490.053;174;20.00;45273.00
1738253490.103;150;20.00;36824.13
1738253490.153;152;20.00;37404.40
1738253490.203;162;20.00;41165.20
1738253490.253;158;20.00;39751.73
1738253490.303;158;20.00;39751.73
1738253490.353;158;20.00;39751.73
1738253490.403;163;20.00;41365.60
1738253490.454;152;20.00;37616.00
1738253490.503;178;20.00;46589.07
1738253490.553;182;20.00;47923.13
1738253490.603;182;20.00;47923.13
1738253490.654;182;20.00;47923.13
1738253490.704;182;20.00;47923.13
1738253490.754;162;20.00;41077.87
1738253490.804;145;20.00;34925.87
1738253490.854;150;20.00;36710.54
1738253490.904;155;20.00;38710.40
1738253490.954;155;20.00;38710.40
1738253491.005;155;20.00;38710.40
1738253491.054;155;20.00;38710.40
1738253491.105;173;20.00;44793.80
1738253491.155;161;20.00;40638.93
1738253491.204;160;20.00;40177.87
1738253491.254;160;20.00;40177.87
1738253491.304;160;20.00;40177.87
1738253491.354;160;20.00;40177.87
1738253491.405;155;20.00;38664.00
1738253491.454;152;20.00;37568.00
1738253491.504;153;20.00;37963.46
1738253491.555;153;20.00;37963.46
1738253491.605;153;20.00;37963.46
1738253491.655;153;20.00;37963.46
1738253491.705;170;20.00;43738.54
1738253491.755;167;20.00;42900.60
1738253491.805;163;20.00;41177.93
1738253491.855;145;20.00;34973.07
1738253491.905;145;20.00;34973.07
1738253491.955;145;20.00;34973.07
1738253492.006;160;20.00;40345.87
1738253492.057;173;20.00;44898.54
1738253492.107;157;20.00;39360.00
1738253492.157;162;20.00;40824.80
1738253492.207;162;20.00;40824.80
1738253492.257;162;20.00;40824.80
1738253492.307;162;20.00;40824.80
1738253492.357;152;20.00;37550.07
1738253492.408;158;20.00;39729.60
1738253492.456;167;20.00;42726.40
1738253492.507;167;20.00;42726.40
1738253492.557;167;20.00;42726.40
1738253492.608;167;20.00;42726.40
1738253492.658;167;20.00;42726.40
1738253492.708;161;20.00;40634.93
1738253492.757;151;20.00;37179.60
1738253492.808;168;20.00;43268.46
1738253492.859;166;20.00;42528.73
1738253492.909;166;20.00;42528.73
1738253492.959;166;20.00;42528.73
1738253493.009;150;20.00;36774.93
1738253493.059;161;20.00;40799.33
1738253493.110;168;20.00;43155.20
1738253493.160;149;20.00;36566.27
1738253493.211;161;20.00;40817.73
1738253493.261;161;20.00;40817.73
1738253493.311;161;20.00;40817.73
1738253493.360;161;20.00;40817.73
1738253493.411;170;20.00;43771.60
1738253493.461;171;20.00;44032.67
1738253493.511;172;20.00;44552.54
1738253493.562;172;20.00;44552.54
1738253493.612;172;20.00;44552.54
1738253493.662;172;20.00;44552.54
1738253493.712;167;20.00;42706.93
1738253493.763;163;20.00;41358.13
1738253493.812;172;20.00;44494.40
1738253493.863;172;20.00;44494.40
1738253493.913;172;20.00;44494.40
1738253493.963;172;20.00;44494.40
1738253494.013;152;20.00;37447.87
1738253494.063;158;20.00;39694.93
1738253494.114;162;20.00;41085.80
1738253494.163;162;20.00;41085.80
1738253494.213;162;20.00;41085.80
1738253494.263;162;20.00;41085.80
1738253494.317;155;20.00;38483.20
1738253494.364;152;20.00;37337.27
1738253494.414;163;20.00;41239.40
1738253494.465;163;20.00;41239.40
1738253494.514;163;20.00;41239.40
1738253494.565;163;20.00;41239.40
1738253494.615;151;20.00;37008.27
1738253494.664;170;20.00;43740.00
1738253494.715;163;20.00;41460.67
1738253494.764;179;20.00;46891.93
1738253494.815;179;20.00;46891.93
1738253494.864;179;20.00;46891.93
1738253494.915;177;20.00;46209.60
1738253494.965;163;20.00;41187.07
1738253495.015;174;20.00;45357.80
1738253495.065;156;20.00;39057.07
1738253495.114;156;20.00;39057.07
1738253495.164;156;20.00;39057.07
1738253495.215;159;20.00;39953.07
1738253495.265;152;20.00;37626.13
1738253495.314;163;20.00;41367.73
1738253495.365;163;20.00;41367.73
1738253495.415;163;20.00;41367.73
1738253495.466;163;20.00;41367.73
1738253495.515;151;20.00;37049.33
1738253495.565;151;20.00;37120.00
1738253495.616;161;20.00;40772.00
1738253495.665;161;20.00;40772.00
1738253495.716;161;20.00;40772.00
1738253495.765;161;20.00;40772.00
1738253495.815;151;20.00;37211.20
1738253495.865;158;20.00;39625.07
1738253495.916;159;20.00;39922.93
1738253495.965;159;20.00;39922.93
1738253496.016;159;20.00;39922.93
1738253496.066;159;20.00;39922.93
1738253496.116;152;20.00;37634.13
1738253496.166;146;20.00;35318.40
1738253496.216;162;20.00;40969.20
1738253496.267;162;20.00;40969.20
1738253496.317;162;20.00;40969.20
1738253496.366;162;20.00;40969.20
1738253496.416;155;20.00;38666.13
1738253496.466;171;20.00;44000.27
1738253516.388;151;20.00;37054.54
1738253516.438;151;20.00;37054.54
1738253516.488;151;20.00;37054.54
1738253516.538;151;20.00;37054.54
1738253516.589;147;20.00;35794.27
1738253516.638;152;20.00;37499.93
1738253516.689;169;20.00;43338.60
1738253516.738;166;20.00;42463.54
1738253516.788;166;20.00;42463.54
1738253516.839;166;20.00;42463.54
1738253516.889;166;20.00;42463.54
1738253516.939;163;20.00;41354.13
1738253516.989;151;20.00;37215.60
1738253517.039;149;20.00;36289.67
1738253517.089;149;20.00;36613.87
1738253517.139;149;20.00;36613.87
1738253517.190;149;20.00;36613.87
1738253517.239;149;20.00;36613.87
1738253517.290;149;20.00;36613.87
1738253517.340;162;20.00;40922.27
1738253517.390;152;20.00;37519.93
1738253517.440;155;20.00;38621.60
1738253517.490;166;20.00;42282.67
1738253517.541;166;20.00;42282.67
1738253517.590;166;20.00;42282.67
1738253517.641;169;20.00;43537.46
1738253517.691;170;20.00;43896.27
1738253517.740;170;20.00;43745.33
1738253517.791;159;20.00;39846.07
1738253517.841;159;20.00;39846.07
1738253517.891;159;20.00;39846.07
1738253517.941;159;20.00;39846.07
1738253517.991;159;20.00;39846.07
1738253518.042;159;20.00;40068.00
1738253518.092;150;20.00;36900.00
1738253518.144;159;20.00;39800.13
1738253518.195;159;20.00;39993.00
1738253518.245;159;20.00;39993.00
1738253518.296;159;20.00;39993.00
1738253518.346;159;20.00;39993.00
1738253518.396;159;20.00;39993.00
1738253518.446;156;20.00;38969.33
1738253518.496;167;20.00;42857.73
1738253518.546;177;20.00;46380.60
1738253518.596;152;20.00;37494.40
1738253518.646;150;20.00;36827.27
1738253518.696;150;20.00;36827.27
1738253518.746;150;20.00;36827.27
1738253518.797;154;20.00;38093.87
1738253518.847;164;20.00;41572.27
1738253518.896;177;20.00;46255.54
1738253518.947;149;20.00;36338.13
1738253518.997;148;20.00;36227.46
1738253519.047;148;20.00;36227.46
1738253519.097;148;20.00;36227.46
1738253519.147;149;20.00;36349.20
1738253519.197;148;20.00;35919.20
1738253519.247;165;20.00;41913.20
1738253519.297;160;20.00;40421.60
1738253519.348;160;20.00;40421.60
1738253519.398;160;20.00;40421.60
1738253519.448;160;20.00;40421.60
1738253519.499;161;20.00;40512.27
1738253519.548;154;20.00;38142.13
1738253519.598;155;20.00;38445.33
1738253519.650;158;20.00;39755.46
1738253519.700;160;20.00;40192.40
1738253519.749;160;20.00;40192.40
1738253519.800;160;20.00;40192.40
1738253519.849;163;20.00;41508.27
1738253519.900;173;20.00;44951.60
1738253519.949;157;20.00;39253.27
1738253520.000;163;20.00;41198.54
1738253520.050;163;20.00;41198.54
1738253520.100;163;20.00;41198.54
1738253520.150;171;20.00;44031.20
1738253520.200;149;20.00;36434.13
1738253520.249;150;20.00;36622.00
1738253520.300;161;20.00;40557.20
1738253520.349;160;20.00;40257.20
1738253520.400;160;20.00;40257.20
1738253520.450;160;20.00;40257.20
1738253520.500;160;20.00;40257.20
1738253520.550;173;20.00;44886.60
1738253520.600;173;20.00;44950.13
1738253520.650;150;20.00;36894.13
1738253520.701;152;20.00;37391.20
1738253520.750;152;20.00;37391.20
1738253520.800;152;20.00;37391.20
1738253520.851;152;20.00;37391.20
1738253520.901;155;20.00;38714.07
1738253520.950;156;20.00;38964.67
1738253521.000;170;20.00;43915.67
1738253521.052;170;20.00;43949.87
1738253521.102;170;20.00;43949.87
1738253521.152;170;20.00;43949.87
1738253521.201;170;20.00;43949.87
1738253521.251;174;20.00;45338.93
1738253521.302;149;20.00;36505.87
1738253521.352;147;20.00;35640.80
1738253521.402;181;20.00;47496.33
1738253521.451;181;20.00;47496.33
1738253521.502;181;20.00;47496.33
1738253521.552;170;20.00;43819.46
1738253521.602;161;20.00;40495.87
1738253521.652;148;20.00;36268.00
1738253521.703;149;20.00;36552.80
1738253521.753;149;20.00;36552.80
1738253521.803;149;20.00;36552.80
1738253521.852;149;20.00;36552.80
1738253521.903;148;20.00;36236.27
1738253521.953;169;20.00;43500.54
1738253522.003;166;20.00;42315.13
1738253522.053;175;20.00;45504.00
1738253522.103;175;20.00;45504.00
1738253522.153;175;20.00;45504.00
1738253522.204;175;20.00;45504.00
1738253522.255;148;20.00;36139.73
1738253522.305;159;20.00;39955.73
1738253522.355;161;20.00;40638.67
1738253522.406;157;20.00;39210.13
1738253522.456;157;20.00;39210.13
1738253522.506;157;20.00;39210.13
1738253522.556;160;20.00;40315.73
1738253522.607;176;20.00;45754.54
1738253522.656;176;20.00;45982.13
1738253522.707;148;20.00;36034.13
1738253522.756;148;20.00;36034.13
1738253522.807;148;20.00;36034.13
1738253522.857;148;20.00;36034.13
1738253522.908;148;20.00;36034.13
1738253522.957;150;20.00;36628.54
1738253523.007;169;20.00;43456.80
1738253523.058;157;20.00;39404.54
1738253523.108;159;20.00;39999.20
1738253523.157;159;20.00;39999.20
1738253523.207;159;20.00;39999.20
1738253523.258;157;20.00;39105.07
1738253523.308;171;20.00;44208.40
1738253523.358;159;20.00;39968.00
1738253523.408;160;20.00;40442.13
1738253523.457;166;20.00;42488.40
1738253523.507;166;20.00;42488.40
1738253523.558;166;20.00;42488.40
1738253523.608;166;20.00;42488.40
1738253523.657;149;20.00;36516.27
1738253523.707;171;20.00;44228.13
1738253523.758;170;20.00;43956.00
1738253523.808;163;20.00;41347.87
1738253523.857;163;20.00;41347.87
1738253523.907;163;20.00;41347.87
1738253523.958;163;20.00;41347.87
1738253524.008;163;20.00;41347.87
1738253524.058;166;20.00;42426.93
1738253524.108;151;20.00;37155.60
1738253524.158;152;20.00;37341.33
1738253524.209;160;20.00;40134.93
1738253524.258;160;20.00;40134.93
1738253524.308;160;20.00;40134.93
1738253524.359;150;20.00;36644.67
1738253524.409;166;20.00;42330.13
1738253524.459;167;20.00;42873.20
1738253524.510;178;20.00;46751.20
1738253524.559;178;20.00;46751.20
1738253524.610;178;20.00;46751.20
1738253524.659;178;20.00;46751.20
1738253524.709;178;20.00;46751.20
1738253524.761;148;20.00;35978.13
1738253524.811;148;20.00;36175.20
1738253524.862;153;20.00;38019.46
1738253524.912;159;20.00;40038.40
1738253524.962;165;20.00;42006.07
1738253525.012;165;20.00;42006.07
1738253525.061;165;20.00;42006.07
1738253525.112;165;20.00;42006.07
1738253525.162;172;20.00;44647.33
1738253525.212;160;20.00;40160.54
1738253525.262;152;20.00;37648.80
1738253525.312;176;20.00;45949.33
1738253525.362;176;20.00;45949.33
1738253525.412;176;20.00;45949.33
1738253525.461;176;20.00;45949.33
1738253525.512;176;20.00;45949.33
1738253525.562;175;20.00;45561.54
1738253525.612;164;20.00;41734.13
1738253525.663;164;20.00;41659.20
1738253886.900;50;19.10;37311.60
1738253886.949;50;18.41;35357.07
1738253887.000;50;18.55;35755.20
1738253887.051;50;18.55;35755.20
1738253887.101;50;18.55;35755.20
1738253887.150;50;18.55;35755.20
1738253887.200;50;18.60;35888.54
1738253887.250;50;19.51;38502.67
1738253887.300;50;19.16;37493.20
1738253887.351;50;19.16;37493.20
1738253887.401;50;19.16;37493.20
1738253887.450;50;19.16;37493.20
1738253887.501;50;21.19;43273.73
1738253887.550;50;20.34;40855.67
1738253887.601;50;19.90;39607.87
1738253887.650;50;19.22;37652.54
1738253887.700;50;19.22;37652.54
1738253887.751;50;19.22;37652.54
1738253887.801;50;19.22;37652.54
1738253887.850;50;22.11;45884.00
1738253887.901;50;18.57;35827.60
1738253887.951;50;20.63;41673.07
1738253888.001;50;20.06;40068.27
1738253888.050;50;20.06;40068.27
1738253888.101;50;20.06;40068.27
1738253888.150;50;20.06;40068.27
1738253888.200;50;20.83;42256.87
1738253888.252;50;20.61;41632.27
1738253888.302;50;19.33;37987.20
1738253888.352;50;19.33;37987.20
1738253888.402;50;19.33;37987.20
1738253888.452;50;19.33;37987.20
1738253888.502;50;18.49;35599.73
1738253888.552;50;18.85;36612.27
1738253888.602;50;18.85;36612.27
1738253888.651;50;19.27;37795.07
1738253888.702;50;19.27;37795.07
1738253888.752;50;19.27;37795.07
1738253888.801;50;18.69;36147.93
1738253888.852;50;19.79;39284.54
1738253888.902;50;20.10;40179.46
1738253888.952;50;18.89;36736.00
1738253889.003;50;18.89;36736.00
1738253889.053;50;18.89;36736.00
1738253889.103;50;18.89;36736.00
1738253889.154;50;18.31;35062.00
1738253889.203;50;20.32;40802.80
1738253889.253;50;19.47;38381.60
1738253889.304;50;19.47;38381.60
1738253889.354;50;19.47;38381.60
1738253889.404;50;19.47;38381.60
1738253889.454;50;19.47;38381.60
1738253889.503;50;19.11;37353.60
1738253889.553;50;19.03;37121.73
1738253889.604;50;21.51;44185.20
1738253889.653;50;20.55;41445.60
1738253889.704;50;20.55;41445.60
1738253889.754;50;20.55;41445.60
1738253889.805;50;20.55;41445.60
1738253889.855;50;20.21;40479.73
1738253889.904;50;20.10;40172.80
1738253889.954;50;18.53;35707.20
1738253890.004;50;20.59;41570.93
1738253890.055;50;20.59;41570.93
1738253890.104;50;20.59;41570.93
1738253890.154;50;20.59;41570.93
1738253890.205;50;18.88;36686.13
1738253890.254;50;22.30;46444.40
1738253890.305;50;19.50;38454.93
1738253890.355;50;19.50;38454.93
1738253890.404;50;19.50;38454.93
1738253890.455;50;19.50;38454.93
1738253890.504;50;19.01;37072.93
1738253890.554;50;20.80;42176.33
1738253890.604;50;18.92;36797.20
1738253890.654;50;18.92;36797.20
1738253890.704;50;18.92;36797.20
1738253890.754;50;18.92;36797.20
1738253890.804;50;19.54;38564.80
1738253890.854;50;19.35;38029.87
1738253890.905;50;20.03;39976.33
1738253890.955;50;18.71;36200.54
1738253891.004;50;18.71;36200.54
1738253891.055;50;18.71;36200.54
1738253891.105;50;18.71;36200.54
1738253891.154;50;20.03;39978.27
1738253891.204;50;18.89;36729.20
1738253891.254;50;18.67;36105.07
1738253891.304;50;21.30;43592.13
1738253891.354;50;21.30;43592.13
1738253891.405;50;21.30;43592.13
1738253891.455;50;21.30;43592.13
1738253891.505;50;19.89;39578.67
1738253891.555;50;18.58;35830.87
1738253891.605;50;21.75;44870.20
1738253891.655;50;20.48;41246.67
1738253891.705;50;20.48;41246.67
1738253891.754;50;20.48;41246.67
1738253891.804;50;20.51;41351.87
1738253891.855;50;20.34;40848.46
1738253891.905;50;18.88;36687.73
1738253891.954;50;21.53;44236.80
1738253892.005;50;21.53;44236.80
1738253892.055;50;21.53;44236.80
1738253892.104;50;21.53;44236.80
1738253892.155;50;21.53;44236.80
1738253892.205;50;19.22;37677.13
1738253892.255;50;19.04;37149.93
1738253892.305;50;21.49;44132.80
1738253892.355;50;21.57;44366.40
1738253892.406;50;21.57;44366.40
1738253892.455;50;21.57;44366.40
1738253892.506;50;21.57;44366.40
1738253892.556;50;21.57;44366.40
1738253892.606;50;18.67;36108.00
1738253892.655;50;21.17;43210.33
1738253892.706;50;20.17;40377.33
1738253892.756;50;19.24;37711.73
1738253892.806;50;19.24;37711.73
1738253892.856;50;19.24;37711.73
1738253892.906;50;18.60;35912.13
1738253892.956;50;19.14;37433.07
1738253893.006;50;22.15;46017.07
1738253893.057;50;18.46;35488.00
1738253893.106;50;18.50;35616.00
1738253893.156;50;18.50;35616.00
1738253893.206;50;18.50;35616.00
1738253893.256;50;18.50;35616.00
1738253893.306;50;19.23;37694.80
1738253893.357;50;19.07;37248.54
1738253893.407;50;19.16;37486.93
1738253893.457;50;19.25;37739.46
1738253893.508;50;19.25;37739.46
1738253893.557;50;19.25;37739.46
1738253893.608;50;19.25;37739.46
1738253893.657;50;19.45;38328.54
1738253893.707;50;18.25;34906.54
1738253893.758;50;20.67;41785.33
1738253893.807;50;20.67;41785.33
1738253893.857;50;20.67;41785.33
1738253893.908;50;20.67;41785.33
1738253893.958;50;20.67;41785.33
1738253894.008;50;19.39;38161.60
1738253894.058;50;19.60;38734.40
1738253894.108;50;20.25;40607.07
1738253894.158;50;19.04;37163.33
1738253894.208;50;19.04;37163.33
1738253894.258;50;19.04;37163.33
1738253894.310;50;19.69;39002.46
1738253894.358;50;19.58;38697.40
1738253894.408;50;20.88;42382.54
1738253894.458;50;19.48;38417.20
1738253894.508;50;20.80;42159.73
1738253894.557;50;20.80;42159.73
1738253894.608;50;20.80;42159.73
1738253894.658;50;20.80;42159.73
1738253894.708;50;18.32;35113.80
1738253894.758;50;20.36;40899.27
1738253894.808;50;19.43;38252.40
1738253894.859;50;19.13;37409.67
1738253894.908;50;19.13;37409.67
1738253894.958;50;19.13;37409.67
1738253895.009;50;19.95;39746.54
1738253895.058;50;19.71;39050.13
1738253895.108;50;20.93;42530.80
1738253895.158;50;19.86;39498.54
1738253895.209;50;19.86;39498.54
1738253895.259;50;19.86;39498.54
1738253895.308;50;19.86;39498.54
1738253895.359;50;20.83;42242.13
1738253895.409;50;19.65;38894.54
1738253895.459;50;20.15;40324.93
1738253895.509;50;20.15;40324.93
1738253895.560;50;20.04;40001.60
1738253895.609;50;20.04;40001.60
1738253895.659;50;20.04;40001.60
1738253895.709;50;18.90;36762.40
1738253895.760;50;18.54;35730.40
1738253895.810;50;20.68;41816.67
1738253895.860;50;20.34;40854.33
1738253895.909;50;20.34;40854.33
1738253895.959;50;20.34;40854.33
1738253896.009;50;20.34;40854.33
1738253896.060;50;19.93;39673.27
1738253896.110;50;20.76;42038.27
1738253896.160;50;20.10;40172.27
1738253916.386;50;19.81;39349.87
1738253916.436;50;20.11;40209.33
1738253916.486;50;19.06;37210.80
1738253916.536;50;19.06;37210.80
1738253916.586;50;19.06;37210.80
1738253916.636;50;19.06;37210.80
1738253916.685;50;21.35;43723.00
1738253916.735;50;20.89;42426.80
1738253916.786;50;19.33;37967.46
1738253916.836;50;19.33;37967.46
1738253916.887;50;19.33;37967.46
1738253916.937;50;18.90;36754.67
1738253916.986;50;19.61;38779.73
1738253917.037;50;19.95;39756.54
1738253917.088;50;19.12;37382.13
1738253917.137;50;19.12;37382.13
1738253917.188;50;19.12;37382.13
1738253917.238;50;19.12;37382.13
1738253917.287;50;18.69;36146.80
1738253917.337;50;21.70;44725.87
1738253917.387;50;21.07;42925.93
1738253917.438;50;21.41;43897.07
1738253917.488;50;21.41;43897.07
1738253917.538;50;21.41;43897.07
1738253917.588;50;21.41;43897.07
1738253917.638;50;22.13;45957.27
1738253917.688;50;21.32;43656.46
1738253917.738;50;20.03;39974.87
1738253917.788;50;20.03;39974.87
1738253917.838;50;20.03;39974.87
1738253917.889;50;20.03;39974.87
1738253917.938;50;20.09;40138.40
1738253917.989;50;21.10;43029.20
1738253918.040;50;21.00;42747.46
1738253918.090;50;21.17;43224.54
1738253918.140;50;21.17;43224.54
1738253918.190;50;21.17;43224.54
1738253918.240;50;20.01;39923.60
1738253918.290;50;19.90;39608.13
1738253918.340;50;19.74;39140.93
1738253918.390;50;18.98;36981.60
1738253918.440;50;18.98;36981.60
1738253918.490;50;18.98;36981.60
1738253918.541;50;18.98;36981.60
1738253918.591;50;18.98;36981.60
1738253918.640;50;21.14;43139.73
1738253918.690;50;18.67;36092.13
1738253918.740;50;19.23;37692.07
1738253918.791;50;21.45;44028.13
1738253918.841;50;21.45;44028.13
1738253918.890;50;21.45;44028.13
1738253918.940;50;21.18;43236.27
1738253918.990;50;18.61;35941.20
1738253919.041;50;20.13;40256.07
1738253919.091;50;18.73;36262.54
1738253919.141;50;19.70;39026.13
1738253919.190;50;19.70;39026.13
1738253919.240;50;19.70;39026.13
1738253919.292;50;19.70;39026.13
1738253919.342;50;18.68;36131.87
1738253919.392;50;19.51;38494.40
1738253919.442;50;21.83;45105.07
1738253919.492;50;20.72;41939.20
1738253919.542;50;20.72;41939.20
1738253919.592;50;20.72;41939.20
1738253919.642;50;20.72;41939.20
1738253919.693;50;20.41;41049.60
1738253919.743;50;19.80;39325.20
1738253919.793;50;20.90;42444.80
1738253919.842;50;20.68;41821.33
1738253919.893;50;20.68;41821.33
1738253919.943;50;20.68;41821.33
1738253919.993;50;20.68;41821.33
1738253920.043;50;19.03;37121.87
1738253920.093;50;20.01;39901.20
1738253920.143;50;21.11;43050.67
1738253920.194;50;21.11;43050.67
1738253920.244;50;21.11;43050.67
1738253920.293;50;21.11;43050.67
1738253920.345;50;20.91;42481.60
1738253920.395;50;18.95;36895.20
1738253920.444;50;18.96;36918.33
1738253920.495;50;18.96;36918.33
1738253920.544;50;18.96;36918.33
1738253920.594;50;18.96;36918.33
1738253920.644;50;19.32;37960.00
1738253920.695;50;19.90;39614.93
1738253920.746;50;19.15;37471.80
1738253920.797;50;20.15;40300.80
1738253920.846;50;20.15;40300.80
1738253920.896;50;20.15;40300.80
1738253920.947;50;20.54;41423.33
1738253920.997;50;20.08;40111.87
1738253921.048;50;19.40;38188.80
1738253921.098;50;19.57;38652.40
1738253921.148;50;19.57;38652.40
1738253921.199;50;19.57;38652.40
1738253921.249;50;19.09;37285.07
1738253921.299;50;22.16;46039.33
1738253921.349;50;21.50;44170.46
1738253921.399;50;21.17;43208.00
1738253921.449;50;21.17;43208.00
1738253921.499;50;21.17;43208.00
1738253921.549;50;20.96;42607.67
1738253921.600;50;20.53;41382.40
1738253921.650;50;19.73;39124.67
1738253921.701;50;21.41;43907.33
1738253921.750;50;21.41;43907.33
1738253921.800;50;21.41;43907.33
1738253921.850;50;21.41;43907.33
1738253921.900;50;20.96;42608.13
1738253921.950;50;20.26;40613.73
1738253922.001;50;20.78;42097.33
1738253922.050;50;19.98;39824.00
1738253922.100;50;21.35;43718.73
1738253922.151;50;21.35;43718.73
1738253922.201;50;21.35;43718.73
1738253922.251;50;21.35;43718.73
1738253922.301;50;21.35;43718.73
1738253922.351;50;20.20;40460.67
1738253922.401;50;21.13;43113.07
1738253922.451;50;18.90;36766.40
1738253922.501;50;19.18;37549.33
1738253922.551;50;19.18;37549.33
1738253922.602;50;19.18;37549.33
1738253922.651;50;19.18;37549.33
1738253922.701;50;19.34;38020.27
1738253922.752;50;19.38;38121.07
1738253922.802;50;19.95;39734.13
1738253922.851;50;18.75;36337.33
1738253922.902;50;20.52;41377.20
1738253922.952;50;20.52;41377.20
1738253923.002;50;20.52;41377.20
1738253923.052;50;18.85;36624.80
1738253923.102;50;22.12;45922.00
1738253923.152;50;21.09;43003.33
1738253923.202;50;19.29;37870.67
1738253923.252;50;19.29;37870.67
1738253923.303;50;19.29;37870.67
1738253923.352;50;19.29;37870.67
1738253923.403;50;19.29;37870.67
1738253923.453;50;19.29;37870.67
1738253923.503;50;18.99;37017.07
1738253923.553;50;18.78;36405.60
1738253923.603;50;18.70;36191.00
1738253923.653;50;18.45;35487.20
1738253923.703;50;19.68;38975.87
1738253923.753;50;19.68;38975.87
1738253923.804;50;19.68;38975.87
1738253923.853;50;19.71;39060.40
1738253923.904;50;20.73;41956.93
1738253923.953;50;20.36;40916.27
1738253924.003;50;21.57;44356.13
1738253924.053;50;19.90;39603.20
1738253924.103;50;19.90;39603.20
1738253924.154;50;19.90;39603.20
1738253924.204;50;19.90;39603.20
1738253924.255;50;20.80;42155.87
1738253924.354;50;18.34;35159.20
1738253924.405;50;19.03;37134.80
1738253924.455;50;19.03;37134.80
1738253924.505;50;19.03;37134.80
1738253924.556;50;20.00;39879.87
1738253924.606;50;20.07;40099.46
1738253924.655;50;18.60;35905.20
1738253924.706;50;20.47;41217.87
1738253924.756;50;18.86;36627.73
1738253924.806;50;18.86;36627.73
1738253924.856;50;18.86;36627.73
1738253924.907;50;18.86;36627.73
1738253924.956;50;18.92;36816.27
1738253925.008;50;20.03;39967.67
1738253925.057;50;18.58;35844.27
1738253925.107;50;18.58;35844.27
1738253925.158;50;18.58;35844.27
1738253925.208;50;18.58;35844.27
1738253925.258;50;21.10;43010.67
1738253925.308;50;18.30;35032.20
1738253925.359;50;19.31;37928.46
1738253925.409;50;19.31;37928.46
1738253925.459;50;19.31;37928.46
1738253925.510;50;19.31;37928.46
1738253925.560;50;18.73;36268.54
1738253925.610;50;19.41;38220.54
1738253925.660;50;19.06;37213.33
1738253945.619;50;19.59;38727.40
1738253945.668;50;19.78;39246.80
1738253945.719;50;19.78;39246.80
1738253945.769;50;19.78;39246.80
1738253945.820;50;19.78;39246.80
1738253945.869;50;21.15;43157.87
1738253945.921;50;21.35;43719.46
1738253945.970;50;22.49;46982.33
1738253946.020;50;22.44;46834.67
1738253946.070;50;22.44;46834.67
1738253946.120;50;22.44;46834.67
1738253946.170;50;22.44;46834.67
1738253946.220;50;19.21;37632.54
1738253946.270;50;19.81;39339.20
1738253946.321;50;18.54;35743.20
1738253946.371;50;18.54;35743.20
1738253946.421;50;18.54;35743.20
1738253946.471;50;18.54;35743.20
1738253946.521;50;21.48;44087.46
1738253946.571;50;19.04;37140.67
1738253946.622;50;21.28;43523.73
1738253946.672;50;21.28;43523.73
1738253946.722;50;21.28;43523.73
1738253946.772;50;21.28;43523.73
1738253946.822;50;21.76;44897.07
1738253946.872;50;21.57;44351.33
1738253946.921;50;19.69;38992.27
1738253946.972;50;20.07;40097.13
1738253947.022;50;20.07;40097.13
1738253947.072;50;20.07;40097.13
1738253947.123;50;20.07;40097.13
1738253947.173;50;20.92;42507.73
1738253947.223;50;21.18;43240.54
1738253947.273;50;21.18;43240.54
1738253947.323;50;22.28;46376.46
1738253947.373;50;22.28;46376.46
1738253947.423;50;22.28;46376.46
1738253947.474;50;22.28;46376.46
1738253947.523;50;20.04;40011.46
1738253947.574;50;21.27;43501.27
1738253947.624;50;21.83;45083.46
1738253947.673;50;21.83;45083.46
1738253947.723;50;21.83;45083.46
1738253947.774;50;21.83;45083.46
1738253947.824;50;19.74;39136.13
1738253947.875;50;20.93;42540.73
1738253947.924;50;21.18;43248.00
1738253947.975;50;21.18;43248.00
1738253948.024;50;21.18;43248.00
1738253948.074;50;21.18;43248.00
1738253948.125;50;21.18;43248.00
1738253948.175;50;19.32;37960.80
1738253948.224;50;21.18;43244.46
1738253948.275;50;18.34;35170.93
1738253948.325;50;20.63;41670.54
1738253948.375;50;20.63;41670.54
1738253948.425;50;20.63;41670.54
1738253948.475;50;20.63;41670.54
1738253948.525;50;19.59;38729.87
1738253948.586;50;19.01;37079.60
1738253948.625;50;20.80;42173.46
1738253948.674;50;21.04;42837.60
1738253948.726;50;19.50;38448.80
1738253948.776;50;19.50;38448.80
1738253948.826;50;19.50;38448.80
1738253948.877;50;19.50;38448.80
1738253948.927;50;20.34;40852.54
1738253948.976;50;19.29;37873.33
1738253949.026;50;19.96;39773.87
1738253949.077;50;18.48;35551.46
1738253949.127;50;19.48;38411.73
1738253949.176;50;19.48;38411.73
1738253949.227;50;19.48;38411.73
1738253949.277;50;21.34;43695.73
1738253949.327;50;19.62;38791.33
1738253949.377;50;18.47;35517.07
1738253949.427;50;21.38;43823.20
1738253949.477;50;21.38;43823.20
1738253949.528;50;21.38;43823.20
1738253949.578;50;21.38;43823.20
1738253949.628;50;21.38;43823.20
1738253949.678;50;18.68;36130.13
1738253949.728;50;19.40;38180.27
1738253949.777;50;21.03;42832.80
1738253949.827;50;19.46;38346.93
1738253949.878;50;20.49;41291.46
1738253949.928;50;20.49;41291.46
1738253949.978;50;20.49;41291.46
1738253950.028;50;20.49;41291.46
1738253950.077;50;18.64;36021.87
1738253950.128;50;20.79;42136.20
1738253950.178;50;21.26;43485.46
1738253950.229;50;21.10;43024.33
1738253950.278;50;21.10;43024.33
1738253950.330;50;21.10;43024.33
1738253950.379;50;21.10;43024.33
1738253950.429;50;19.23;37682.93
1738253950.530;50;20.05;40029.07
1738253950.580;50;20.05;40029.07
1738253950.630;50;20.05;40029.07
1738253950.680;50;20.05;40029.07
1738253950.731;50;20.05;40029.07
1738253950.781;50;20.98;42668.54
1738253950.831;50;18.70;36198.67
1738253950.881;50;21.09;42993.60
1738253950.932;50;21.25;43435.67
1738253950.981;50;21.25;43435.67
1738253951.031;50;21.25;43435.67
1738253951.082;50;21.25;43435.67
1738253951.131;50;19.86;39476.00
1738253951.181;50;18.41;35354.67
1738253951.232;50;20.43;41106.13
1738253951.281;50;20.43;41106.13
1738253951.332;50;20.43;41106.13
1738253951.383;50;20.43;41106.13
1738253951.433;50;20.43;41106.13
1738253951.483;50;18.79;36444.54
1738253951.532;50;19.05;37176.13
1738253951.582;50;18.73;36273.60
1738253951.632;50;21.54;44276.07
1738253951.682;50;21.54;44276.07
1738253951.732;50;21.54;44276.07
1738253951.782;50;21.54;44276.07
1738253951.832;50;19.68;38971.33
1738253951.882;50;22.57;47209.46
1738253951.933;50;20.37;40927.93
1738253951.983;50;21.33;43662.40
1738253952.033;50;21.33;43662.40
1738253952.083;50;21.33;43662.40
1738253952.133;50;21.33;43662.40
1738253952.183;50;19.34;38005.87
1738253952.233;50;21.35;43727.60
1738253952.283;50;19.18;37563.46
1738253952.333;50;18.90;36760.80
1738253952.383;50;18.90;36760.80
1738253952.433;50;18.90;36760.80
1738253952.484;50;18.90;36760.80
1738253952.533;50;21.24;43410.27
1738253952.583;50;18.37;35231.33
1738253952.633;50;19.56;38636.13
1738253952.683;50;20.67;41791.46
1738253952.734;50;20.67;41791.46
1738253952.784;50;20.67;41791.46
1738253952.834;50;20.67;41791.46
1738253952.884;50;19.85;39463.73
1738253952.934;50;21.30;43601.07
1738253952.983;50;18.62;35965.87
1738253953.033;50;18.62;35965.87
1738253953.084;50;18.62;35965.87
1738253953.133;50;18.62;35965.87
1738253953.183;50;19.02;37104.40
1738253953.233;50;20.66;41773.33
1738253953.283;50;20.61;41620.13
1738253953.334;50;18.93;36846.13
1738253953.383;50;18.93;36846.13
1738253953.434;50;18.93;36846.13
1738253953.484;50;19.07;37243.07
1738253953.534;50;22.12;45917.93
1738253953.584;50;21.28;43534.07
1738253953.635;50;20.79;42128.80
1738253953.684;50;20.79;42128.80
1738253953.734;50;20.79;42128.80
1738253953.790;50;20.79;42128.80
1738253953.837;50;19.84;39424.80
1738253953.887;50;20.29;40723.46
1738253953.938;50;21.83;45089.93
1738253953.987;50;21.83;45089.93
1738253954.038;50;21.83;45089.93
1738253954.088;50;21.83;45089.93
1738253954.139;50;21.83;45089.93
1738253954.189;50;21.52;44223.07
1738253954.238;50;21.48;44105.33
1738253954.288;50;18.30;35057.87
1738253954.339;50;18.43;35408.54
1738253954.389;50;18.43;35408.54
1738253954.439;50;18.43;35408.54
1738253954.488;50;20.00;39885.60
1738253954.539;50;19.26;37768.93
1738253954.589;50;19.70;39040.00
1738253954.639;50;21.59;44407.20
1738253954.689;50;20.51;41346.27
1738253954.739;50;20.51;41346.27
1738253954.788;50;20.51;41346.27
1738253954.839;50;20.51;41346.27
1738253954.890;50;21.20;43314.00
1738253954.940;50;20.83;42252.67
1738253954.989;50;19.24;37726.40
1738254103.105;350;19.44;38298.27
1738254103.154;350;19.93;39691.46
1738254103.204;350;19.65;38882.54
1738254103.254;350;19.65;38882.54
1738254103.305;350;19.65;38882.54
1738254103.355;350;19.65;38882.54
1738254103.404;350;19.65;38882.54
1738254103.455;350;18.71;36204.27
1738254103.504;350;20.59;41574.40
1738254103.555;350;20.57;41505.07
1738254103.604;350;22.17;46060.27
1738254103.654;350;22.17;46060.27
1738254103.705;350;22.17;46060.27
1738254103.754;350;22.17;46060.27
1738254103.804;350;22.17;46060.27
1738254103.855;350;19.48;38402.54
1738254103.904;350;20.31;40780.27
1738254103.954;350;20.31;40780.27
1738254104.004;350;20.51;41333.27
1738254104.055;350;20.51;41333.27
1738254104.104;350;20.51;41333.27
1738254104.155;350;20.51;41333.27
1738254104.204;350;20.47;41217.73
1738254104.254;350;21.18;43241.00
1738254104.304;350;19.81;39352.00
1738254104.355;350;19.81;39352.00
1738254104.405;350;19.81;39352.00
1738254104.455;350;19.81;39352.00
1738254104.504;350;19.81;39352.00
1738254104.554;350;20.71;41894.93
1738254104.605;350;21.34;43689.60
1738254104.655;350;19.89;39568.00
1738254104.705;350;19.86;39485.87
1738254104.755;350;20.18;40391.07
1738254104.804;350;20.18;40391.07
1738254104.854;350;20.18;40391.07
1738254104.904;350;20.18;40391.07
1738254104.955;350;20.43;41108.40
1738254105.005;350;21.61;44476.60
1738254105.056;350;21.51;44181.33
1738254105.106;350;20.64;41710.27
1738254105.156;350;20.64;41710.27
1738254105.206;350;20.64;41710.27
1738254105.256;350;20.64;41710.27
1738254105.306;350;18.92;36819.46
1738254105.356;350;19.36;38058.80
1738254105.406;350;18.47;35543.20
1738254105.457;350;19.14;37434.93
1738254105.506;350;19.14;37434.93
1738254105.556;350;19.14;37434.93
1738254105.607;350;19.14;37434.93
1738254105.656;350;18.36;35218.67
1738254105.707;350;20.15;40300.27
1738254105.756;350;20.34;40866.40
1738254105.807;350;20.22;40514.40
1738254105.857;350;20.22;40514.40
1738254105.907;350;20.22;40514.40
1738254105.957;350;20.90;42451.20
1738254106.008;350;20.40;41018.67
1738254106.057;350;21.36;43759.60
1738254106.108;350;19.84;39434.27
1738254106.158;350;19.84;39434.27
1738254106.208;350;19.84;39434.27
1738254106.259;350;19.84;39434.27
1738254106.308;350;19.84;39434.27
1738254106.359;350;21.08;42951.60
1738254106.409;350;21.06;42904.54
1738254106.459;350;20.43;41101.33
1738254106.509;350;21.71;44769.33
1738254106.558;350;21.71;44769.33
1738254106.609;350;21.71;44769.33
1738254106.658;350;21.71;44769.33
1738254106.710;350;21.71;44769.33
1738254106.759;350;19.61;38765.60
1738254106.810;350;21.44;43988.40
1738254106.861;350;22.15;45997.00
1738254106.911;350;20.57;41511.20
1738254106.960;350;20.19;40426.40
1738254107.011;350;20.19;40426.40
1738254107.061;350;20.19;40426.40
1738254107.111;350;20.19;40426.40
1738254107.161;350;19.84;39436.67
1738254107.212;350;21.32;43649.20
1738254107.265;350;21.32;43649.20
1738254107.312;350;20.56;41486.93
1738254107.362;350;19.59;38729.60
1738254107.412;350;19.59;38729.60
1738254107.462;350;19.59;38729.60
1738254107.513;350;19.59;38729.60
1738254107.563;350;20.24;40564.60
1738254107.613;350;20.50;41320.46
1738254107.663;350;18.72;36247.46
1738254107.713;350;22.17;46058.73
1738254107.763;350;22.17;46058.73
1738254107.813;350;22.17;46058.73
1738254107.863;350;22.17;46058.73
1738254107.915;350;19.39;38142.40
1738254107.965;350;21.37;43785.07
1738254108.015;350;22.20;46161.00
1738254108.065;350;21.82;45067.33
1738254108.115;350;21.82;45067.33
1738254108.165;350;21.82;45067.33
1738254108.215;350;21.82;45067.33
1738254108.264;350;19.43;38262.13
1738254108.314;350;20.64;41718.13
1738254108.365;350;20.19;40437.33
1738254108.415;350;20.19;40437.33
1738254108.464;350;20.19;40437.33
1738254108.515;350;20.19;40437.33
1738254108.565;350;20.98;42672.00
1738254108.616;350;19.02;37089.07
1738254108.665;350;21.26;43488.46
1738254108.715;350;21.21;43344.00
1738254108.767;350;21.21;43344.00
1738254108.817;350;21.21;43344.00
1738254108.867;350;21.21;43344.00
1738254108.916;350;19.70;39033.60
1738254108.966;350;21.74;44848.13
1738254109.017;350;21.70;44723.93
1738254109.067;350;21.70;44723.93
1738254109.117;350;21.70;44723.93
1738254109.167;350;21.70;44723.93
1738254109.217;350;21.36;43773.07
1738254109.268;350;19.17;37530.00
1738254109.317;350;21.49;44124.27
1738254109.368;350;21.49;44124.27
1738254109.418;350;21.49;44124.27
1738254109.468;350;21.49;44124.27
1738254109.518;350;21.49;44124.27
1738254109.568;350;22.12;45921.07
1738254109.619;350;20.39;41003.27
1738254109.668;350;19.60;38740.00
1738254109.718;350;20.41;41051.46
1738254109.769;350;20.41;41051.46
1738254109.819;350;20.41;41051.46
1738254109.868;350;20.79;42123.60
1738254109.919;350;20.30;40736.27
1738254109.972;350;19.99;39858.54
1738254110.021;350;22.27;46352.80
1738254110.071;350;22.27;46352.80
1738254110.122;350;22.27;46352.80
1738254110.171;350;22.27;46352.80
1738254110.222;350;20.86;42326.40
1738254110.271;350;18.95;36899.20
1738254110.321;350;20.00;39890.93
1738254110.371;350;20.91;42465.20
1738254110.421;350;20.91;42465.20
1738254110.472;350;20.91;42465.20
1738254110.521;350;20.91;42465.20
1738254110.572;350;18.58;35832.40
1738254110.622;350;19.46;38356.27
1738254110.672;350;21.24;43422.33
1738254110.722;350;20.05;40041.07
1738254110.772;350;20.05;40041.07
1738254110.823;350;20.05;40041.07
1738254110.872;350;20.87;42349.87
1738254110.923;350;20.68;41815.20
1738254110.973;350;21.85;45166.13
1738254111.023;350;18.75;36330.93
1738254111.074;350;18.75;36330.93
1738254111.123;350;18.75;36330.93
1738254111.173;350;18.75;36330.93
1738254111.223;350;20.47;41220.13
1738254111.273;350;20.51;41331.20
1738254111.323;350;22.27;46347.73
1738254111.373;350;22.27;46347.73
1738254111.424;350;22.27;46347.73
1738254111.473;350;22.27;46347.73
1738254111.523;350;22.27;46347.73
1738254111.574;350;20.61;41613.07
1738254111.624;350;20.92;42518.46
1738254111.673;350;21.94;45396.80
1738254111.723;350;21.89;45275.07
1738254111.774;350;21.89;45275.07
1738254111.824;350;21.89;45275.07
1738254111.873;350;21.89;45275.07
1738254111.924;350;21.36;43757.67
1738254111.974;350;20.36;40909.60
1738254112.024;350;20.47;41232.27
1738254112.074;350;18.71;36213.73
1738254112.124;350;18.71;36213.73
1738254112.174;350;18.71;36213.73
1738254112.225;350;18.71;36213.73
1738254112.274;350;21.66;44624.00
1738254112.324;350;22.28;46379.27
1738254112.374;350;18.77;36397.60
1738254112.425;350;22.19;46111.60
1738254112.475;350;22.19;46111.60
1738254112.524;350;22.19;46111.60
1738254112.575;350;22.31;46451.13
1738254112.624;350;20.87;42354.13
1738254112.675;350;18.84;36575.67
1738254133.319;350;19.75;39163.33
1738254133.369;350;19.75;39163.33
1738254133.419;350;19.73;39129.27
1738254133.469;350;19.73;39129.27
1738254133.518;350;19.73;39129.27
1738254133.569;350;19.73;39129.27
1738254133.619;350;20.06;40059.46
1738254133.668;350;18.73;36266.54
1738254133.718;350;20.79;42135.73
1738254133.768;350;20.50;41320.80
1738254133.819;350;20.50;41320.80
1738254133.869;350;20.50;41320.80
1738254133.919;350;20.50;41320.80
1738254133.969;350;20.50;41320.80
1738254134.019;350;20.48;41246.13
1738254134.069;350;20.48;41246.13
1738254134.120;350;21.05;42882.40
1738254134.171;350;21.41;43897.07
1738254134.221;350;22.09;45841.73
1738254134.271;350;22.09;45841.73
1738254134.320;350;22.09;45841.73
1738254134.371;350;21.19;43268.40
1738254134.422;350;21.81;45027.33
1738254134.472;350;21.85;45145.73
1738254134.521;350;20.14;40284.46
1738254134.572;350;19.69;38991.73
1738254134.621;350;19.69;38991.73
1738254134.672;350;19.69;38991.73
1738254134.722;350;19.69;38991.73
1738254134.772;350;19.69;38991.73
1738254134.822;350;19.31;37917.60
1738254134.872;350;20.88;42402.13
1738254134.922;350;20.95;42591.07
1738254134.972;350;22.75;47727.00
1738254135.022;350;22.75;47727.00
1738254135.072;350;22.75;47727.00
1738254135.123;350;22.03;45679.60
1738254135.173;350;21.36;43757.93
1738254135.223;350;19.48;38415.20
1738254135.273;350;20.19;40414.67
1738254135.323;350;20.29;40708.27
1738254135.373;350;20.29;40708.27
1738254135.423;350;20.29;40708.27
1738254135.474;350;20.29;40708.27
1738254135.524;350;21.72;44795.20
1738254135.575;350;20.56;41490.67
1738254135.625;350;21.31;43622.00
1738254135.675;350;20.44;41135.46
1738254135.724;350;18.38;35273.07
1738254135.775;350;18.38;35273.07
1738254135.824;350;18.38;35273.07
1738254135.874;350;21.90;45293.13
1738254135.925;350;18.29;35006.80
1738254135.974;350;19.72;39095.60
1738254136.025;350;20.89;42421.46
1738254136.076;350;20.89;42421.46
1738254136.125;350;20.89;42421.46
1738254136.176;350;20.89;42421.46
1738254136.226;350;19.77;39225.60
1738254136.276;350;19.66;38906.13
1738254136.326;350;20.33;40828.87
1738254136.376;350;20.33;40828.87
1738254136.426;350;20.33;40828.87
1738254136.476;350;20.33;40828.87
1738254136.526;350;21.50;44170.67
1738254136.577;350;22.45;46875.27
1738254136.627;350;19.07;37237.60
1738254136.677;350;18.98;36970.13
1738254136.727;350;18.98;36970.13
1738254136.777;350;18.98;36970.13
1738254136.827;350;18.98;36970.13
1738254136.876;350;18.98;36970.13
1738254136.926;350;20.73;41961.20
1738254136.989;350;20.73;41961.20
1738254137.033;350;20.50;41306.13
1738254137.083;350;21.90;45294.54
1738254137.133;350;21.92;45340.67
1738254137.183;350;21.92;45340.67
1738254137.233;350;21.92;45340.67
1738254137.283;350;20.87;42372.27
1738254137.333;350;20.67;41808.54
1738254137.384;350;21.44;43991.93
1738254137.434;350;19.34;38018.13
1738254137.485;350;19.34;38018.13
1738254137.534;350;19.34;38018.13
1738254137.584;350;19.34;38018.13
1738254137.634;350;20.79;42130.33
1738254137.684;350;22.98;48361.27
1738254137.735;350;18.31;35071.93
1738254137.785;350;20.93;42528.00
1738254137.835;350;20.93;42528.00
1738254137.884;350;20.93;42528.00
1738254137.935;350;20.93;42528.00
1738254137.985;350;22.19;46116.13
1738254138.034;350;21.99;45549.27
1738254138.086;350;19.91;39624.20
1738254138.136;350;18.77;36375.73
1738254138.186;350;18.77;36375.73
1738254138.236;350;18.77;36375.73
1738254138.286;350;22.11;45901.20
1738254138.337;350;22.12;45918.60
1738254138.387;350;22.12;45918.60
1738254138.437;350;21.98;45520.40
1738254138.487;350;21.98;45520.40
1738254138.537;350;21.98;45520.40
1738254138.587;350;21.98;45520.40
1738254138.637;350;21.98;45520.40
1738254138.696;350;20.45;41178.67
1738254138.738;350;19.72;39086.80
1738254138.787;350;19.64;38866.27
1738254138.838;350;20.87;42351.07
1738254138.888;350;20.15;40301.27
1738254138.938;350;20.15;40301.27
1738254138.989;350;20.15;40301.27
1738254139.038;350;20.15;40301.27
1738254139.089;350;20.14;40276.00
1738254139.138;350;21.10;43018.60
1738254139.189;350;20.33;40838.54
1738254139.239;350;21.80;45001.67
1738254139.289;350;21.80;45001.67
1738254139.339;350;21.80;45001.67
1738254139.389;350;21.80;45001.67
1738254139.439;350;20.15;40322.13
1738254139.491;350;20.15;40322.13
1738254139.539;350;20.04;39998.93
1738254139.589;350;20.65;41724.46
1738254139.639;350;21.69;44711.54
1738254139.689;350;21.69;44711.54
1738254139.739;350;21.69;44711.54
1738254139.789;350;21.69;44711.54
1738254139.840;350;20.29;40712.27
1738254139.890;350;20.90;42463.07
1738254139.940;350;21.29;43573.00
1738254139.990;350;20.94;42553.87
1738254140.040;350;20.94;42553.87
1738254140.090;350;20.94;42553.87
1738254140.139;350;20.94;42553.87
1738254140.191;350;20.86;42342.54
1738254140.240;350;19.49;38448.46
1738254140.290;350;18.31;35070.40
1738254140.341;350;22.02;45631.20
1738254140.391;350;22.02;45631.20
1738254140.441;350;22.02;45631.20
1738254140.492;350;22.02;45631.20
1738254140.542;350;19.13;37402.67
1738254140.592;350;19.13;37402.67
1738254140.642;350;20.92;42494.54
1738254140.691;350;20.25;40589.87
1738254140.742;350;19.63;38842.80
1738254140.792;350;19.63;38842.80
1738254140.841;350;19.63;38842.80
1738254140.893;350;20.34;40856.67
1738254140.943;350;19.99;39868.27
1738254140.993;350;20.23;40551.33
1738254141.043;350;20.11;40200.80
1738254141.093;350;20.11;40200.80
1738254141.143;350;20.11;40200.80
1738254141.193;350;20.11;40200.80
1738254141.243;350;22.49;46962.93
1738254141.293;350;21.66;44602.80
1738254141.343;350;20.18;40403.46
1738254141.393;350;20.18;40403.46
1738254141.443;350;20.18;40403.46
1738254141.493;350;20.18;40403.46
1738254141.543;350;20.18;40403.46
1738254141.593;350;22.05;45721.13
1738254141.644;350;20.62;41648.60
1738254141.694;350;19.51;38483.07
1738254141.744;350;20.86;42328.00
1738254141.794;350;20.86;42328.00
1738254141.843;350;20.86;42328.00
1738254141.894;350;20.86;42328.00
1738254141.945;350;20.86;42328.00
1738254141.995;350;20.72;41945.20
1738254142.045;350;22.24;46261.07
1738254142.095;350;22.08;45819.87
1738254142.146;350;21.39;43849.54
1738254142.195;350;21.39;43849.54
1738254142.245;350;21.39;43849.54
1738254142.295;350;19.74;39136.40
1738254142.345;350;19.73;39108.27
1738254142.395;350;20.25;40597.87
1738254142.445;350;18.95;36889.60
1738254142.496;350;18.95;36889.60
1738254142.545;350;18.95;36889.60
1738254142.596;350;18.95;36889.60
1738254142.646;350;20.40;41034.13
1738254142.696;350;20.40;41034.13
1738254142.745;350;22.04;45689.67
1738254142.796;350;21.79;44997.27
1738254142.846;350;21.79;44997.27
1738254142.896;350;21.79;44997.27
1738254142.945;350;21.79;44997.27
1738254142.997;350;19.15;37477.00
1738254143.046;350;20.48;41263.93
1738254143.096;350;18.87;36680.54
1738254164.357;350;19.44;38280.67
1738254164.407;350;18.96;36914.33
1738254164.457;350;19.88;39553.07
1738254164.507;350;19.57;38649.07
1738254164.557;350;19.36;38061.33
1738254164.607;350;19.36;38061.33
1738254164.657;350;19.36;38061.33
1738254164.706;350;19.71;39056.40
1738254164.757;350;20.82;42217.80
1738254164.806;350;21.00;42745.54
1738254164.857;350;21.04;42846.67
1738254164.908;350;21.23;43400.73
1738254164.957;350;21.23;43400.73
1738254165.008;350;21.23;43400.73
1738254165.058;350;21.93;45380.80
1738254165.108;350;20.99;42701.87
1738254165.157;350;21.65;44587.07
1738254165.209;350;22.10;45852.87
1738254165.259;350;22.10;45852.87
1738254165.309;350;22.10;45852.87
1738254165.359;350;22.10;45852.87
1738254165.409;350;22.10;45852.87
1738254165.459;350;21.14;43145.60
1738254165.509;350;21.14;43145.60
1738254165.559;350;19.63;38829.33
1738254165.610;350;19.88;39534.67
1738254165.660;350;19.88;39534.67
1738254165.711;350;19.88;39534.67
1738254165.760;350;19.88;39534.67
1738254165.810;350;19.64;38853.33
1738254165.860;350;21.02;42796.13
1738254165.910;350;19.79;39286.40
1738254165.960;350;19.42;38233.07
1738254166.011;350;19.96;39783.46
1738254166.061;350;19.96;39783.46
1738254166.111;350;19.96;39783.46
1738254166.161;350;19.96;39783.46
1738254166.212;350;20.63;41684.13
1738254166.262;350;20.11;40206.67
1738254166.312;350;18.80;36469.33
1738254166.362;350;21.38;43815.87
1738254166.412;350;21.38;43815.87
1738254166.462;350;21.38;43815.87
1738254166.512;350;21.38;43815.87
1738254166.562;350;20.85;42297.67
1738254166.612;350;22.00;45582.67
1738254166.662;350;19.34;38000.80
1738254166.712;350;19.34;38000.80
1738254166.762;350;19.34;38000.80
1738254166.812;350;19.34;38000.80
1738254166.862;350;21.50;44158.33
1738254166.913;350;20.43;41120.00
1738254166.963;350;19.85;39456.00
1738254167.013;350;19.85;39456.00
1738254167.063;350;19.33;37993.07
1738254167.113;350;19.33;37993.07
1738254167.163;350;19.33;37993.07
1738254167.213;350;19.33;37993.07
1738254167.265;350;21.12;43072.80
1738254167.314;350;20.61;41634.13
1738254167.364;350;19.01;37063.54
1738254167.414;350;19.01;37063.54
1738254167.465;350;19.01;37063.54
1738254167.514;350;19.01;37063.54
1738254167.564;350;22.00;45574.00
1738254167.614;350;21.88;45248.93
1738254167.664;350;22.94;48252.67
1738254167.714;350;21.17;43216.67
1738254167.765;350;21.17;43216.67
1738254167.814;350;21.17;43216.67
1738254167.864;350;19.96;39782.40
1738254167.915;350;19.91;39625.33
1738254167.965;350;21.10;43025.20
1738254168.015;350;20.86;42322.00
1738254168.064;350;19.43;38263.20
1738254168.114;350;19.43;38263.20
1738254168.164;350;19.43;38263.20
1738254168.221;350;19.43;38263.20
1738254168.268;350;19.05;37176.54
1738254168.319;350;19.08;37281.07
1738254168.369;350;20.48;41244.54
1738254168.419;350;20.12;40220.93
1738254168.469;350;20.12;40220.93
1738254168.519;350;20.12;40220.93
1738254168.570;350;20.88;42399.33
1738254168.620;350;21.69;44710.13
1738254168.670;350;21.33;43660.13
1738254168.720;350;21.33;43660.13
1738254168.770;350;21.33;43660.13
1738254168.820;350;21.33;43660.13
1738254168.869;350;18.94;36870.40
1738254168.920;350;20.15;40322.67
1738254168.969;350;21.55;44295.67
1738254169.020;350;21.01;42772.93
1738254169.069;350;21.01;42772.93
1738254169.120;350;21.01;42772.93
1738254169.170;350;21.01;42772.93
1738254169.220;350;21.01;42772.93
1738254169.269;350;20.65;41743.07
1738254169.320;350;20.65;41743.07
1738254169.369;350;21.02;42778.00
1738254169.420;350;21.97;45502.73
1738254169.470;350;21.97;45502.73
1738254169.521;350;21.97;45502.73
1738254169.570;350;21.97;45502.73
1738254169.621;350;21.97;45502.73
1738254169.671;350;21.32;43649.33
1738254169.721;350;20.56;41473.73
1738254169.771;350;21.84;45129.87
1738254169.821;350;21.97;45483.07
1738254169.872;350;20.73;41976.93
1738254169.922;350;20.73;41976.93
1738254169.972;350;20.73;41976.93
1738254170.022;350;20.47;41232.13
1738254170.072;350;19.47;38384.00
1738254170.122;350;22.20;46165.00
1738254170.172;350;19.92;39670.93
1738254170.222;350;19.92;39670.93
1738254170.271;350;19.92;39670.93
1738254170.322;350;19.92;39670.93
1738254170.372;350;20.41;41068.00
1738254170.422;350;20.41;41068.00
1738254170.473;350;19.26;37767.87
1738254170.522;350;18.73;36281.73
1738254170.572;350;19.39;38143.73
1738254170.622;350;19.39;38143.73
1738254170.673;350;19.39;38143.73
1738254170.722;350;19.39;38143.73
1738254170.772;350;22.26;46314.46
1738254170.822;350;22.02;45644.54
1738254170.872;350;19.82;39370.40
1738254170.923;350;19.82;39370.40
1738254170.974;350;19.82;39370.40
1738254171.023;350;19.82;39370.40
1738254171.073;350;19.30;37896.67
1738254171.123;350;19.80;39327.87
1738254171.173;350;20.61;41631.46
1738254171.223;350;20.55;41464.27
1738254171.273;350;19.47;38380.00
1738254171.324;350;19.47;38380.00
1738254171.373;350;19.47;38380.00
1738254171.424;350;22.16;46046.87
1738254171.474;350;20.83;42252.33
1738254171.524;350;20.46;41188.13
1738254171.574;350;20.29;40719.20
1738254171.624;350;21.86;45185.73
1738254171.674;350;21.86;45185.73
1738254171.723;350;21.86;45185.73
1738254171.774;350;21.31;43626.67
1738254171.824;350;21.72;44774.67
1738254171.874;350;21.97;45495.80
1738254171.925;350;20.19;40433.67
1738254171.975;350;20.19;40433.67
1738254172.024;350;20.19;40433.67
1738254172.075;350;19.26;37791.73
1738254172.125;350;20.23;40541.87
1738254172.175;350;21.49;44140.54
1738254172.225;350;21.21;43322.40
1738254172.274;350;21.21;43322.40
1738254172.325;350;21.21;43322.40
1738254172.375;350;21.84;45121.13
1738254172.425;350;22.00;45588.93
1738254172.475;350;19.77;39225.33
1738254172.526;350;19.77;39225.33
1738254172.576;350;19.77;39225.33
1738254172.626;350;19.77;39225.33
1738254172.676;350;21.10;43009.20
1738254172.737;350;21.10;43009.20
1738254172.776;350;19.54;38579.73
1738254172.826;350;19.54;38579.73
1738254172.876;350;19.54;38579.73
1738254172.926;350;19.54;38579.73
1738254172.976;350;22.27;46358.93
1738254173.026;350;22.00;45573.67
1738254173.076;350;20.99;42708.54
1738254319.800;158;30.00;39729.46
1738254319.850;149;30.00;36543.46
1738254319.901;149;30.00;36543.46
1738254319.950;149;30.00;36543.46
1738254320.001;149;30.00;36543.46
1738254320.051;150;30.00;36627.46
1738254320.100;173;30.00;44672.54
1738254320.150;147;30.00;35826.67
1738254320.201;147;30.00;35826.67
1738254320.251;147;30.00;35826.67
1738254320.302;147;30.00;35826.67
1738254320.351;150;30.00;36925.87
1738254320.401;150;30.00;36925.87
1738254320.452;168;30.00;43179.20
1738254320.502;174;30.00;45132.93
1738254320.552;179;30.00;46982.07
1738254320.602;179;30.00;46982.07
1738254320.653;179;30.00;46982.07
1738254320.703;149;30.00;36521.33
1738254320.753;161;30.00;40787.93
1738254320.804;156;30.00;38922.80
1738254320.853;156;30.00;38841.07
1738254320.904;156;30.00;38841.07
1738254320.953;156;30.00;38841.07
1738254321.004;156;30.00;38841.07
1738254321.054;173;30.00;44840.13
1738254321.104;173;30.00;44742.40
1738254321.153;149;30.00;36540.00
1738254321.204;149;30.00;36540.00
1738254321.254;149;30.00;36540.00
1738254321.304;149;30.00;36540.00
1738254321.354;151;30.00;37031.60
1738254321.404;157;30.00;39378.13
1738254321.454;156;30.00;39004.27
1738254321.504;156;30.00;39004.27
1738254321.554;162;30.00;40821.60
1738254321.605;162;30.00;40821.60
1738254321.654;162;30.00;40821.60
1738254321.704;152;30.00;37626.93
1738254321.754;171;30.00;44030.27
1738254321.804;174;30.00;45172.80
1738254321.854;167;30.00;42695.60
1738254321.905;167;30.00;42695.60
1738254321.954;167;30.00;42695.60
1738254322.005;167;30.00;42695.60
1738254322.054;153;30.00;37982.13
1738254322.105;159;30.00;40007.07
1738254322.155;173;30.00;44691.60
1738254322.205;172;30.00;44654.67
1738254322.254;172;30.00;44654.67
1738254322.305;172;30.00;44654.67
1738254322.355;172;30.00;44654.67
1738254322.405;159;30.00;39825.87
1738254322.455;182;30.00;48155.87
1738254322.505;173;30.00;44948.07
1738254322.555;173;30.00;44859.60
1738254322.606;173;30.00;44859.60
1738254322.656;173;30.00;44859.60
1738254322.706;170;30.00;43688.33
1738254322.756;151;30.00;37137.07
1738254322.806;148;30.00;36017.33
1738254322.856;162;30.00;40864.54
1738254322.906;162;30.00;40864.54
1738254322.957;162;30.00;40864.54
1738254323.007;162;30.00;40864.54
1738254323.057;165;30.00;41911.67
1738254323.108;164;30.00;41666.93
1738254323.157;160;30.00;40222.93
1738254323.207;160;30.00;40222.93
1738254323.257;160;30.00;40222.93
1738254323.307;160;30.00;40222.93
1738254323.358;161;30.00;40782.73
1738254323.408;149;30.00;36565.60
1738254323.458;161;30.00;40749.46
1738254323.509;161;30.00;40749.46
1738254323.559;161;30.00;40749.46
1738254323.609;161;30.00;40749.46
1738254323.661;173;30.00;44934.60
1738254323.710;155;30.00;38655.93
1738254323.767;165;30.00;41956.20
1738254323.814;175;30.00;45705.73
1738254323.864;154;30.00;38031.73
1738254323.915;154;30.00;38031.73
1738254323.966;154;30.00;38031.73
1738254324.016;157;30.00;39377.33
1738254324.065;179;30.00;47067.60
1738254324.115;167;30.00;42898.93
1738254324.166;167;30.00;42797.60
1738254324.216;167;30.00;42797.60
1738254324.265;167;30.00;42797.60
1738254324.316;167;30.00;42797.60
1738254324.365;169;30.00;43464.07
1738254324.416;172;30.00;44536.54
1738254324.466;153;30.00;37838.93
1738254324.516;153;30.00;37838.93
1738254324.567;153;30.00;37838.93
1738254324.616;153;30.00;37838.93
1738254324.666;158;30.00;39548.80
1738254324.717;151;30.00;37246.80
1738254324.767;155;30.00;38542.27
1738254324.816;155;30.00;38542.27
1738254324.866;155;30.00;38542.27
1738254324.916;155;30.00;38542.27
1738254324.967;155;30.00;38542.27
1738254325.016;159;30.00;40057.87
1738254325.066;168;30.00;43233.46
1738254325.116;174;30.00;45053.07
1738254325.167;157;30.00;39318.40
1738254325.217;157;30.00;39316.27
1738254325.266;157;30.00;39316.27
1738254325.316;157;30.00;39316.27
1738254325.367;157;30.00;39316.27
1738254325.417;169;30.00;43418.93
1738254325.467;155;30.00;38694.40
1738254325.518;159;30.00;39950.93
1738254325.567;177;30.00;46084.67
1738254325.618;177;30.00;46084.67
1738254325.667;177;30.00;46084.67
1738254325.718;177;30.00;46084.67
1738254325.768;169;30.00;43391.93
1738254325.818;174;30.00;45222.87
1738254325.867;161;30.00;40580.67
1738254325.918;147;30.00;35763.60
1738254325.968;147;30.00;35763.60
1738254326.018;147;30.00;35763.60
1738254326.068;147;30.00;35763.60
1738254326.118;161;30.00;40650.60
1738254326.174;162;30.00;41049.93
1738254326.219;161;30.00;40580.40
1738254326.269;160;30.00;40241.87
1738254326.319;160;30.00;40241.87
1738254326.369;160;30.00;40241.87
1738254326.420;160;30.00;40241.87
1738254326.470;168;30.00;43015.46
1738254326.520;172;30.00;44324.40
1738254326.569;152;30.00;37603.60
1738254326.620;148;30.00;36010.00
1738254326.670;148;30.00;36010.00
1738254326.720;148;30.00;36010.00
1738254326.770;148;30.00;36010.00
1738254326.820;150;30.00;36664.54
1738254326.870;148;30.00;36165.60
1738254326.921;152;30.00;37381.87
1738254326.971;179;30.00;46805.60
1738254327.021;179;30.00;46805.60
1738254327.071;179;30.00;46805.60
1738254327.121;158;30.00;39725.07
1738254327.171;161;30.00;40586.60
1738254327.220;151;30.00;37222.93
1738254327.271;159;30.00;39907.46
1738254327.321;159;30.00;39907.46
1738254327.371;159;30.00;39907.46
1738254327.421;159;30.00;39907.46
1738254327.471;167;30.00;42857.60
1738254327.522;168;30.00;43192.67
1738254327.572;157;30.00;39298.40
1738254327.622;155;30.00;38474.80
1738254327.672;155;30.00;38474.80
1738254327.721;155;30.00;38474.80
1738254327.771;155;30.00;38474.80
1738254327.821;171;30.00;44075.13
1738254327.871;159;30.00;40061.33
1738254327.923;155;30.00;38531.33
1738254327.973;168;30.00;43029.73
1738254328.023;168;30.00;43029.73
1738254328.073;168;30.00;43029.73
1738254328.123;166;30.00;42351.54
1738254328.173;164;30.00;41554.60
1738254328.223;155;30.00;38426.13
1738254328.273;154;30.00;38160.46
1738254328.323;154;30.00;38160.46
1738254328.373;154;30.00;38160.46
1738254328.423;155;30.00;38623.80
1738254328.473;167;30.00;42750.93
1738254328.523;171;30.00;44264.54
1738254328.578;152;30.00;37538.07
1738254328.623;153;30.00;37913.00
1738254328.673;153;30.00;37913.00
1738254328.723;153;30.00;37913.00
1738254328.773;153;30.00;37913.00
1738254328.824;162;30.00;40850.93
1738254328.875;159;30.00;40050.13
1738254328.924;164;30.00;41843.73
1738254349.227;152;30.00;37354.13
1738254349.278;152;30.00;37354.13
1738254349.329;152;30.00;37354.13
1738254349.378;156;30.00;38880.00
1738254349.428;150;30.00;36830.33
1738254349.479;175;30.00;45610.46
1738254349.529;165;30.00;41919.87
1738254349.578;165;30.00;41919.87
1738254349.629;165;30.00;41919.87
1738254349.679;162;30.00;40999.87
1738254349.729;158;30.00;39555.20
1738254349.779;154;30.00;38309.20
1738254349.829;165;30.00;41936.54
1738254349.879;165;30.00;41936.54
1738254349.929;165;30.00;41936.54
1738254349.979;165;30.00;41936.54
1738254350.029;165;30.00;41936.54
1738254350.079;174;30.00;45178.00
1738254350.129;163;30.00;41306.40
1738254350.179;162;30.00;40836.27
1738254350.230;164;30.00;41684.80
1738254350.280;159;30.00;40020.00
1738254350.330;159;30.00;40020.00
1738254350.380;159;30.00;40020.00
1738254350.430;159;30.00;40020.00
1738254350.480;161;30.00;40486.54
1738254350.530;171;30.00;44020.67
1738254350.580;167;30.00;42691.46
1738254350.631;156;30.00;38975.20
1738254350.682;156;30.00;38975.20
1738254350.732;156;30.00;38975.20
1738254350.782;156;30.00;38975.20
1738254350.833;156;30.00;38975.20
1738254350.883;156;30.00;38846.00
1738254350.934;171;30.00;44004.00
1738254350.983;152;30.00;37324.00
1738254351.034;152;30.00;37324.00
1738254351.084;152;30.00;37324.00
1738254351.135;152;30.00;37324.00
1738254351.185;177;30.00;46149.27
1738254351.234;164;30.00;41551.07
1738254351.285;155;30.00;38587.54
1738254351.335;151;30.00;37306.54
1738254351.385;164;30.00;41658.80
1738254351.435;164;30.00;41658.80
1738254351.484;164;30.00;41658.80
1738254351.534;164;30.00;41658.80
1738254351.585;153;30.00;37712.60
1738254351.635;177;30.00;46358.20
1738254351.686;153;30.00;38015.20
1738254351.735;147;30.00;35839.87
1738254351.787;147;30.00;35839.87
1738254351.836;147;30.00;35839.87
1738254351.886;147;30.00;35839.87
1738254351.937;154;30.00;38264.54
1738254351.987;154;30.00;38214.67
1738254352.037;164;30.00;41818.13
1738254352.087;158;30.00;39489.07
1738254352.137;158;30.00;39489.07
1738254352.187;158;30.00;39489.07
1738254352.238;158;30.00;39489.07
1738254352.288;171;30.00;44307.20
1738254352.338;165;30.00;42146.54
1738254352.389;168;30.00;43066.40
1738254352.439;161;30.00;40648.40
1738254352.489;161;30.00;40648.40
1738254352.538;161;30.00;40648.40
1738254352.591;176;30.00;46038.00
1738254352.639;176;30.00;46038.00
1738254352.689;153;30.00;37700.80
1738254352.739;173;30.00;44955.00
1738254352.790;171;30.00;44067.13
1738254352.840;171;30.00;44067.13
1738254352.890;171;30.00;44067.13
1738254352.940;171;30.00;44067.13
1738254352.990;156;30.00;38946.00
1738254353.040;154;30.00;38108.67
1738254353.090;161;30.00;40584.40
1738254353.140;161;30.00;40584.40
1738254353.190;161;30.00;40584.40
1738254353.242;161;30.00;40584.40
1738254353.292;154;30.00;38106.40
1738254353.342;157;30.00;39207.20
1738254353.392;163;30.00;41281.07
1738254353.442;156;30.00;38979.87
1738254353.492;156;30.00;38979.87
1738254353.542;156;30.00;38979.87
1738254353.592;163;30.00;41337.00
1738254353.642;164;30.00;41662.27
1738254353.691;172;30.00;44637.54
1738254353.742;166;30.00;42342.07
1738254353.793;166;30.00;42342.07
1738254353.843;166;30.00;42342.07
1738254353.893;166;30.00;42342.07
1738254353.943;175;30.00;45627.27
1738254353.993;165;30.00;42199.07
1738254354.043;161;30.00;40621.46
1738254354.093;168;30.00;43147.73
1738254354.144;168;30.00;43147.73
1738254354.193;168;30.00;43147.73
1738254354.243;168;30.00;43147.73
1738254354.294;163;30.00;41320.00
1738254354.343;178;30.00;46498.20
1738254354.393;158;30.00;39749.33
1738254354.443;158;30.00;39476.54
1738254354.493;158;30.00;39476.54
1738254354.544;158;30.00;39476.54
1738254354.594;158;30.00;39476.54
1738254354.644;149;30.00;36485.46
1738254354.694;163;30.00;41353.20
1738254354.744;163;30.00;41204.80
1738254354.795;169;30.00;43522.07
1738254354.845;169;30.00;43522.07
1738254354.895;169;30.00;43522.07
1738254354.946;169;30.00;43522.07
1738254354.996;155;30.00;38583.20
1738254355.045;160;30.00;40347.20
1738254355.095;171;30.00;44268.00
1738254355.146;171;30.00;44268.00
1738254355.195;171;30.00;44268.00
1738254355.246;171;30.00;44268.00
1738254355.296;164;30.00;41571.73
1738254355.345;170;30.00;43674.60
1738254355.396;149;30.00;36548.80
1738254355.445;155;30.00;38510.80
1738254355.497;155;30.00;38510.80
1738254355.547;155;30.00;38510.80
1738254355.597;155;30.00;38510.80
1738254355.647;150;30.00;36834.27
1738254355.697;159;30.00;40100.80
1738254355.747;162;30.00;41014.40
1738254355.798;173;30.00;44718.40
1738254355.847;173;30.00;44718.40
1738254355.897;173;30.00;44718.40
1738254355.947;173;30.00;44718.40
1738254355.997;169;30.00;43608.54
1738254356.047;167;30.00;42858.93
1738254356.097;174;30.00;45034.07
1738254356.147;174;30.00;45034.07
1738254356.198;174;30.00;45034.07
1738254356.248;174;30.00;45034.07
1738254356.299;163;30.00;41340.54
1738254356.350;163;30.00;41340.54
1738254356.399;155;30.00;38573.87
