UnixTimestamp;Microseconds;MilliAmpere;BaseValue
1725552949.111;500;1.00
1725552949.158;500;1.00
1725552949.212;500;1.00
1725552949.258;500;1.00
1725552949.308;500;1.00
1725552949.358;500;1.00
1725552949.409;500;1.00
1725552949.459;500;1.00
1725552949.509;500;1.00
1725552949.560;500;1.00
1725552949.610;500;1.00
1725552949.660;500;1.00
1725552949.710;500;1.00
1725552949.760;500;1.00
1725552949.810;500;1.00
1725552949.859;500;1.00
1725552949.910;500;1.00
1725552949.960;500;1.00
1725552950.010;500;1.00
1725552950.060;500;1.00
1725552950.110;500;1.00
1725552954.025;1;40.00
1725552954.075;1;40.00
1725552954.125;1;40.00
1725552954.176;1;40.00
1725552954.226;1;40.00
1725552954.276;1;40.00
1725552954.326;1;40.00
1725552954.376;1;40.00
1725552954.427;1;40.00
1725552954.477;1;40.00
1725552954.527;1;40.00
1725552954.577;1;40.00
1725552954.627;1;40.00
1725552954.677;1;40.00
1725552954.727;1;40.00
1725552954.777;1;40.00
1725552977.409;134;40.00;33148.67
1725552977.460;125;40.00;33318.80
1725552977.510;125;40.00;33318.80
1725552977.559;93;40.00;33967.60
1725552977.610;40;40.00;35044.93
1725552977.660;40;40.00;35044.93
1725552977.709;40;40.00;35044.93
1725552977.760;55;40.00;34746.54
1725552977.810;55;40.00;34746.54
1725552977.859;55;40.00;34746.54
1725552977.911;101;40.00;33820.87
1725552977.961;74;40.00;34350.13
1725552978.011;74;40.00;34350.13
1725552978.060;33;40.00;35193.33
1725552978.111;29;40.00;35282.00
1725552978.161;29;40.00;35282.00
1725552978.210;88;40.00;34082.13
1725552978.260;49;40.00;34864.80
1725552978.310;49;40.00;34864.80
1725552978.360;50;40.00;34856.13
1725552978.411;29;40.00;35282.00
1725552978.460;39;40.00;35072.40
1725552978.511;39;40.00;35072.40
1725552978.561;35;40.00;35160.54
1725552978.611;36;40.00;35135.87
1725552978.662;38;40.00;35086.00
1725552978.711;38;40.00;35086.00
1725552978.761;61;40.00;34617.07
1725552978.812;55;40.00;34738.13
1725552978.861;55;40.00;34738.13
1725552978.911;55;40.00;34738.13
1725552978.962;44;40.00;34960.80
1725552979.012;41;40.00;35033.33
1725552979.062;41;40.00;35033.33
1725552979.112;42;40.00;34999.73
1725552979.162;62;40.00;34602.67
1725552979.211;62;40.00;34602.67
1725552979.262;67;40.00;34496.27
1725552979.312;82;40.00;34202.40
1725552979.362;80;40.00;34228.27
1725552979.412;80;40.00;34228.27
1725552979.461;29;40.00;35282.00
1725552979.511;45;40.00;34956.00
1725552979.562;45;40.00;34956.00
1725552979.612;45;40.00;34956.00
1725552979.662;36;40.00;35139.60
1725552979.712;51;40.00;34830.67
1725552979.762;51;40.00;34830.67
1725552979.812;51;40.00;34830.67
1725552979.862;43;40.00;34990.00
1725552979.913;29;40.00;35282.00
1725552979.962;29;40.00;35282.00
1725552980.013;29;40.00;35282.00
1725552980.063;35;40.00;35140.54
1725552980.113;35;40.00;35140.54
1725552980.162;35;40.00;35140.54
1725552980.212;73;40.00;34386.54
1725552980.263;45;40.00;34952.54
1725552980.313;45;40.00;34952.54
1725552980.363;45;40.00;34952.54
1725552980.413;44;40.00;34973.20
1725552980.462;55;40.00;34740.80
1725552980.513;55;40.00;34740.80
1725552980.562;34;40.00;35162.27
1725552980.613;60;40.00;34642.40
1725552980.662;60;40.00;34642.40
1725552980.712;60;40.00;34642.40
1725552980.763;63;40.00;34589.87
1725552980.813;57;40.00;34707.33
1725552980.863;57;40.00;34707.33
1725552980.912;57;40.00;34707.33
1725552980.962;48;40.00;34889.00
1725552981.013;48;40.00;34889.00
1725552981.064;48;40.00;34889.00
1725552981.113;67;40.00;34496.93
1725552981.164;48;40.00;34889.67
1725552981.214;48;40.00;34889.67
1725552981.263;49;40.00;34860.67
1725552981.314;74;40.00;34356.67
1725552981.363;74;40.00;34356.67
1725552981.413;74;40.00;34356.67
1725552981.463;70;40.00;34446.67
1725552981.514;77;40.00;34301.46
1725552981.564;77;40.00;34301.46
1725552981.614;79;40.00;34268.13
1725552981.663;71;40.00;34424.13
1725552981.715;71;40.00;34424.13
1725552981.765;71;40.00;34424.13
1725552981.814;46;40.00;34924.00
1725552981.864;46;40.00;34933.46
1725552981.914;46;40.00;34933.46
1725552981.965;42;40.00;35006.46
1725552982.014;63;40.00;34575.73
1725552982.065;63;40.00;34575.73
1725552982.115;63;40.00;34575.73
1725552982.165;76;40.00;34323.67
1725552992.841;124;40.00;33345.67
1725552992.891;124;40.00;33345.67
1725552992.941;124;40.00;33345.67
1725552992.993;32;40.00;35211.07
1725552993.042;32;40.00;35211.07
1725552993.092;32;40.00;35211.07
1725552993.143;123;40.00;33368.13
1725552993.193;123;40.00;33368.13
1725552993.243;123;40.00;33368.13
1725552993.293;47;40.00;34898.00
1725552993.344;47;40.00;34898.00
1725552993.395;47;40.00;34898.00
1725552993.443;47;40.00;34898.00
1725552993.493;77;40.00;34304.40
1725552993.543;77;40.00;34304.40
1725552993.593;77;40.00;34304.40
1725552993.643;29;40.00;35282.00
1725552993.693;29;40.00;35282.00
1725552993.744;29;40.00;35282.00
1725552993.793;35;40.00;35152.27
1725552993.843;35;40.00;35152.27
1725552993.893;35;40.00;35152.27
1725552993.943;29;40.00;35282.00
1725552993.994;29;40.00;35282.00
1725552994.044;29;40.00;35282.00
1725552994.094;46;40.00;34917.87
1725552994.144;37;40.00;35104.54
1725552994.193;37;40.00;35104.54
1725552994.245;37;40.00;35104.54
1725552994.295;31;40.00;35238.40
1725552994.346;83;40.00;34176.60
1725552994.395;83;40.00;34176.60
1725552994.446;83;40.00;34176.60
1725552994.496;60;40.00;34637.46
1725552994.546;40;40.00;35054.54
1725552994.596;40;40.00;35054.54
1725552994.646;40;40.00;35054.54
1725552994.696;29;40.00;35282.00
1725552994.746;29;40.00;35282.00
1725552994.796;29;40.00;35282.00
1725552994.846;29;40.00;35282.00
1725552994.896;29;40.00;35282.00
1725552994.947;63;40.00;34580.00
1725552994.996;63;40.00;34580.00
1725552995.048;63;40.00;34580.00
1725552995.098;53;40.00;34782.93
1725552995.148;53;40.00;34782.93
1725552995.199;53;40.00;34782.93
1725552995.249;79;40.00;34251.60
1725552995.300;60;40.00;34648.40
1725552995.350;60;40.00;34648.40
1725552995.401;60;40.00;34648.40
1725552995.450;38;40.00;35085.07
1725552995.500;38;40.00;35085.07
1725552995.551;38;40.00;35085.07
1725552995.601;48;40.00;34894.67
1725552995.651;48;40.00;34894.67
1725552995.701;48;40.00;34894.67
1725552995.752;71;40.00;34421.33
1725552995.802;71;40.00;34421.33
1725552995.851;71;40.00;34421.33
1725552995.902;29;40.00;35282.00
1725552995.951;29;40.00;35282.00
1725552996.002;29;40.00;35282.00
1725552996.051;92;40.00;33991.33
1725552996.101;58;40.00;34686.40
1725552996.152;58;40.00;34686.40
1725552996.203;58;40.00;34686.40
1725552996.253;44;40.00;34968.93
1725552996.303;41;40.00;35027.20
1725552996.353;41;40.00;35027.20
1725552996.403;64;40.00;34562.40
1725552996.453;64;40.00;34572.40
1725552996.502;64;40.00;34572.40
1725552996.553;64;40.00;34572.40
1725552996.603;29;40.00;35282.00
1725552996.653;32;40.00;35208.00
1725552996.702;32;40.00;35208.00
1725552996.754;32;40.00;35208.00
1725552996.805;88;40.00;34077.33
1725552996.854;88;40.00;34077.33
1725552996.905;88;40.00;34077.33
1725552996.955;78;40.00;34282.60
1725552997.005;78;40.00;34282.60
1725552997.055;78;40.00;34282.60
1725552997.105;38;40.00;35091.80
1725552997.154;66;40.00;34521.87
1725552997.205;66;40.00;34521.87
1725552997.254;66;40.00;34521.87
1725552997.305;29;40.00;35282.00
1725553008.662;80;40.00;34243.46
1725553008.712;100;40.00;33840.93
1725553008.762;100;40.00;33840.93
1725553008.813;69;40.00;34470.54
1725553008.862;37;40.00;35119.87
1725553008.912;39;40.00;35068.13
1725553008.963;39;40.00;35068.13
1725553009.013;63;40.00;34580.40
1725553009.063;65;40.00;34542.00
1725553009.114;65;40.00;34542.00
1725553009.164;65;40.00;34542.00
1725553009.213;82;40.00;34197.67
1725553009.263;68;40.00;34485.27
1725553009.314;68;40.00;34485.27
1725553009.363;68;40.00;34485.27
1725553009.414;75;40.00;34335.00
1725553009.464;75;40.00;34335.00
1725553009.513;75;40.00;34335.00
1725553009.565;75;40.00;34335.00
1725553009.614;53;40.00;34791.20
1725553009.664;52;40.00;34803.33
1725553009.715;52;40.00;34803.33
1725553009.765;52;40.00;34803.33
1725553009.815;69;40.00;34469.46
1725553009.864;49;40.00;34857.07
1725553009.915;49;40.00;34857.07
1725553009.964;49;40.00;34857.07
1725553010.015;44;40.00;34969.54
1725553010.065;51;40.00;34825.00
1725553010.116;51;40.00;34825.00
1725553010.166;51;40.00;34825.00
1725553010.216;31;40.00;35222.67
1725553010.266;36;40.00;35135.07
1725553010.315;36;40.00;35135.07
1725553010.366;36;40.00;35135.07
1725553010.416;49;40.00;34871.33
1725553010.466;49;40.00;34871.33
1725553010.516;49;40.00;34871.33
1725553010.567;91;40.00;34021.54
1725553010.617;91;40.00;34021.54
1725553010.667;91;40.00;34021.54
1725553010.717;31;40.00;35237.87
1725553010.766;36;40.00;35127.07
1725553010.818;36;40.00;35127.07
1725553010.868;36;40.00;35127.07
1725553010.918;56;40.00;34717.20
1725553010.969;95;40.00;33932.27
1725553011.019;95;40.00;33932.27
1725553011.069;95;40.00;33932.27
1725553011.120;29;40.00;35282.00
1725553011.169;31;40.00;35234.67
1725553011.219;31;40.00;35234.67
1725553011.269;31;40.00;35234.67
1725553011.319;44;40.00;34964.93
1725553011.369;37;40.00;35104.67
1725553011.419;37;40.00;35104.67
1725553011.469;37;40.00;35104.67
1725553011.519;53;40.00;34781.46
1725553011.570;77;40.00;34298.67
1725553011.619;77;40.00;34298.67
1725553011.669;77;40.00;34298.67
1725553011.719;34;40.00;35162.27
1725553011.769;35;40.00;35155.46
1725553011.819;35;40.00;35155.46
1725553011.870;35;40.00;35155.46
1725553011.921;66;40.00;34524.20
1725553011.970;89;40.00;34059.73
1725553012.021;89;40.00;34059.73
1725553012.070;89;40.00;34059.73
1725553012.121;38;40.00;35090.27
1725553012.170;46;40.00;34926.80
1725553012.221;46;40.00;34926.80
1725553012.271;46;40.00;34926.80
1725553012.321;37;40.00;35104.27
1725553012.371;29;40.00;35282.00
1725553012.421;29;40.00;35282.00
1725553012.470;29;40.00;35282.00
1725553012.522;31;40.00;35222.67
1725553012.572;59;40.00;34659.07
1725553012.622;59;40.00;34659.07
1725553012.672;59;40.00;34659.07
1725553012.722;29;40.00;35262.40
1725553012.773;29;40.00;35282.00
1725553012.822;29;40.00;35282.00
1725553012.873;50;40.00;34855.27
1725553012.923;39;40.00;35069.67
1725553012.973;39;40.00;35069.67
1725553013.023;39;40.00;35069.67
1725553013.073;31;40.00;35237.60
1725553013.123;31;40.00;35237.60
1725553013.173;31;40.00;35237.60
1725553013.223;84;40.00;34150.40
1725553013.273;80;40.00;34230.46
1725553013.324;80;40.00;34230.46
1725553013.374;80;40.00;34230.46
1725553013.424;52;40.00;34815.33
1725553181.981;200;22.02;33266.40
1725553182.031;200;22.13;33296.27
1725553182.081;200;22.13;33296.27
1725553182.130;200;22.13;33296.27
1725553182.180;200;24.45;33966.00
1725553182.231;200;24.45;33966.00
1725553182.281;200;24.45;33966.00
1725553182.332;200;27.61;34880.54
1725553182.381;200;22.96;33536.13
1725553182.431;200;22.96;33536.13
1725553182.481;200;22.96;33536.13
1725553182.532;200;29.00;35282.00
1725553182.581;200;23.51;33694.67
1725553182.632;200;23.51;33694.67
1725553182.681;200;23.51;33694.67
1725553182.732;200;23.80;33780.13
1725553182.781;200;28.73;35203.46
1725553182.832;200;29.00;35282.00
1725553182.882;200;29.00;35282.00
1725553182.932;200;29.00;35282.00
1725553182.982;200;25.33;34222.80
1725553183.032;200;28.61;35169.67
1725553183.082;200;28.61;35169.67
1725553183.132;200;28.61;35169.67
1725553183.182;200;26.53;34568.80
1725553183.232;200;26.53;34568.80
1725553183.283;200;26.53;34568.80
1725553183.332;200;27.06;34721.20
1725553183.384;200;26.84;34656.93
1725553183.434;200;29.00;35282.00
1725553183.485;200;29.00;35282.00
1725553183.535;200;29.00;35282.00
1725553183.584;200;24.04;33849.20
1725553183.634;200;24.04;33849.20
1725553183.685;200;24.04;33849.20
1725553183.735;200;28.90;35252.13
1725553183.785;200;29.00;35282.00
1725553183.836;200;29.00;35282.00
1725553183.885;200;29.00;35282.00
1725553183.936;200;28.92;35259.46
1725553183.986;200;29.00;35282.00
1725553184.036;200;29.00;35282.00
1725553184.086;200;29.00;35282.00
1725553184.137;200;28.30;35079.46
1725553184.187;200;29.00;35282.00
1725553184.237;200;29.00;35282.00
1725553184.286;200;29.00;35282.00
1725553184.336;200;29.00;35282.00
1725553184.388;200;26.46;34546.93
1725553184.438;200;28.10;35022.00
1725553184.488;200;28.10;35022.00
1725553184.538;200;28.10;35022.00
1725553184.588;200;23.43;33673.40
1725553184.637;200;27.66;34894.93
1725553184.688;200;27.66;34894.93
1725553184.738;200;24.51;33984.27
1725553184.787;200;29.00;35282.00
1725553184.839;200;29.00;35282.00
1725553184.889;200;29.00;35282.00
1725553184.939;200;28.86;35242.80
1725553184.989;200;28.34;35091.46
1725553185.039;200;28.34;35091.46
1725553185.089;200;28.34;35091.46
1725553185.140;200;28.34;35091.46
1725553185.189;200;25.07;34146.60
1725553185.239;200;25.07;34146.60
1725553185.290;200;25.07;34146.60
1725553185.339;200;25.07;34146.60
1725553185.390;200;26.23;34482.27
1725553185.439;200;26.23;34482.27
1725553185.490;200;26.23;34482.27
1725553185.540;200;28.53;35145.07
1725553185.589;200;29.00;35282.00
1725553185.639;200;29.00;35282.00
1725553185.689;200;29.00;35282.00
1725553185.739;200;29.00;35282.00
1725553185.789;200;28.93;35261.07
1725553185.839;200;28.93;35261.07
1725553185.890;200;29.00;35282.00
1725553185.940;200;28.55;35152.00
1725553185.989;200;25.57;34292.20
1725553186.039;200;25.57;34292.20
1725553186.090;200;25.57;34292.20
1725553186.139;200;23.59;33717.73
1725553186.190;200;23.79;33775.60
1725553186.240;200;23.79;33775.60
1725553186.289;200;23.79;33775.60
1725553186.339;200;23.79;33775.60
1725553186.389;200;24.99;34124.27
1725553186.439;200;29.00;35282.00
1725553186.490;200;29.00;35282.00
1725553186.540;200;29.00;35282.00
1725553186.589;200;24.41;33956.13
1725553186.639;200;28.02;34998.54
1725553186.689;200;28.45;35122.27
1725553186.739;200;28.45;35122.27
1725553186.789;200;28.45;35122.27
1725553186.839;200;25.74;34340.54
1725553186.890;200;28.64;35178.54
1725553186.939;200;28.64;35178.54
1725553186.990;200;28.64;35178.54
1725553187.040;200;25.51;34273.07
1725553187.089;200;22.48;33396.93
1725553187.140;200;22.48;33396.93
1725553187.189;200;22.48;33396.93
1725553187.240;200;22.23;33326.27
1725553187.289;200;29.00;35282.00
1725553199.234;200;25.21;34186.40
1725553199.285;200;23.48;33687.33
1725553199.335;200;23.48;33687.33
1725553199.385;200;23.48;33687.33
1725553199.434;200;27.63;34887.46
1725553199.484;200;24.17;33886.00
1725553199.536;200;24.17;33886.00
1725553199.586;200;24.17;33886.00
1725553199.636;200;23.68;33744.00
1725553199.686;200;25.33;34220.54
1725553199.735;200;25.33;34220.54
1725553199.787;200;25.33;34220.54
1725553199.836;200;25.82;34362.87
1725553199.887;200;29.00;35282.00
1725553199.936;200;29.00;35282.00
1725553199.986;200;29.00;35282.00
1725553200.037;200;28.16;35038.27
1725553200.087;200;26.85;34660.40
1725553200.137;200;26.85;34660.40
1725553200.187;200;26.85;34660.40
1725553200.238;200;28.53;35147.20
1725553200.287;200;24.90;34096.93
1725553200.339;200;26.13;34452.00
1725553200.389;200;26.13;34452.00
1725553200.438;200;28.60;35167.20
1725553200.489;200;29.00;35282.00
1725553200.539;200;28.45;35124.27
1725553200.589;200;28.45;35124.27
1725553200.639;200;28.45;35124.27
1725553200.689;200;22.62;33439.40
1725553200.739;200;29.00;35282.00
1725553200.790;200;29.00;35282.00
1725553200.839;200;29.00;35282.00
1725553200.889;200;22.70;33460.27
1725553200.939;200;25.02;34131.40
1725553200.989;200;25.02;34131.40
1725553201.039;200;25.02;34131.40
1725553201.089;200;29.00;35282.00
1725553201.139;200;26.72;34624.27
1725553201.189;200;26.72;34624.27
1725553201.239;200;26.72;34624.27
1725553201.289;200;28.77;35216.40
1725553201.339;200;24.78;34063.67
1725553201.389;200;24.78;34063.67
1725553201.440;200;29.00;35282.00
1725553201.490;200;29.00;35282.00
1725553201.540;200;29.00;35282.00
1725553201.590;200;29.00;35282.00
1725553201.640;200;27.73;34915.20
1725553201.690;200;26.35;34516.00
1725553201.741;200;26.35;34516.00
1725553201.790;200;26.35;34516.00
1725553201.840;200;29.00;35282.00
1725553201.890;200;29.00;35282.00
1725553201.940;200;29.00;35282.00
1725553201.990;200;29.00;35282.00
1725553202.042;200;29.00;35282.00
1725553202.091;200;28.37;35101.33
1725553202.141;200;28.68;35188.54
1725553202.191;200;28.68;35188.54
1725553202.241;200;28.68;35188.54
1725553202.292;200;29.00;35282.00
1725553202.342;200;29.00;35282.00
1725553202.392;200;29.00;35282.00
1725553202.442;200;29.00;35282.00
1725553202.492;200;29.00;35282.00
1725553202.542;200;24.00;33838.27
1725553202.593;200;24.00;33838.27
1725553202.644;200;24.00;33838.27
1725553202.694;200;28.23;35059.46
1725553202.743;200;27.77;34926.80
1725553202.793;200;27.77;34926.80
1725553202.843;200;22.54;33415.73
1725553202.894;200;26.32;34507.07
1725553202.944;200;22.72;33468.27
1725553202.994;200;22.72;33468.27
1725553203.044;200;25.80;34356.67
1725553203.094;200;29.00;35282.00
1725553203.144;200;24.97;34118.13
1725553203.194;200;24.97;34118.13
1725553203.244;200;24.97;34118.13
1725553203.294;200;28.47;35128.80
1725553203.344;200;28.15;35036.00
1725553203.394;200;28.15;35036.00
1725553203.444;200;28.15;35036.00
1725553203.494;200;25.22;34190.40
1725553203.544;200;23.05;33561.87
1725553203.594;200;23.05;33561.87
1725553203.644;200;29.00;35282.00
1725553203.695;200;29.00;35282.00
1725553203.744;200;29.00;35282.00
1725553203.795;200;29.00;35282.00
1725553203.845;200;22.83;33498.27
1725553203.896;200;26.73;34626.80
1725553203.946;200;27.30;34790.27
1725553203.996;200;27.30;34790.27
1725553204.047;200;27.30;34790.27
1725553204.097;200;26.64;34598.80
1725553204.147;200;29.00;35282.00
1725553204.196;200;29.00;35282.00
1725553204.247;200;29.00;35282.00
1725553204.297;200;28.20;35050.67
1725553204.348;200;24.58;34005.87
1725553204.397;200;24.58;34005.87
1725553204.447;200;24.58;34005.87
1725553204.499;200;27.49;34846.54
1725553216.396;200;23.96;33826.93
1725553216.447;200;22.67;33453.27
1725553216.497;200;22.67;33453.27
1725553216.546;200;23.08;33571.93
1725553216.597;200;28.52;35142.54
1725553216.647;200;28.89;35249.60
1725553216.697;200;28.89;35249.60
1725553216.748;200;28.89;35249.60
1725553216.799;200;23.70;33750.80
1725553216.849;200;29.00;35282.00
1725553216.899;200;29.00;35282.00
1725553216.949;200;29.00;35282.00
1725553216.999;200;27.94;34975.20
1725553217.049;200;23.75;33764.80
1725553217.099;200;23.75;33764.80
1725553217.149;200;23.75;33764.80
1725553217.199;200;25.38;34235.20
1725553217.252;200;28.65;35180.80
1725553217.305;200;28.65;35180.80
1725553217.352;200;27.79;34932.73
1725553217.401;200;28.35;35095.73
1725553217.452;200;28.35;35095.73
1725553217.503;200;28.35;35095.73
1725553217.552;200;29.00;35282.00
1725553217.602;200;29.00;35282.00
1725553217.652;200;29.00;35282.00
1725553217.702;200;29.00;35282.00
1725553217.752;200;27.80;34935.93
1725553217.802;200;27.80;34935.93
1725553217.853;200;27.80;34935.93
1725553217.903;200;27.80;34935.93
1725553217.952;200;28.70;35196.00
1725553218.003;200;28.70;35196.00
1725553218.052;200;28.70;35196.00
1725553218.102;200;28.70;35196.00
1725553218.152;200;28.43;35117.00
1725553218.203;200;27.45;34834.80
1725553218.252;200;27.45;34834.80
1725553218.303;200;27.45;34834.80
1725553218.352;200;24.84;34080.54
1725553218.403;200;29.00;35282.00
1725553218.453;200;29.00;35282.00
1725553218.503;200;29.00;35282.00
1725553218.552;200;29.00;35282.00
1725553218.602;200;24.20;33895.20
1725553218.652;200;25.07;34146.67
1725553218.702;200;25.07;34146.67
1725553218.753;200;25.07;34146.67
1725553218.803;200;25.44;34252.00
1725553218.853;200;29.00;35282.00
1725553218.903;200;29.00;35282.00
1725553218.952;200;29.00;35282.00
1725553219.004;200;25.17;34174.67
1725553219.053;200;24.22;33900.27
1725553219.103;200;24.22;33900.27
1725553219.153;200;24.22;33900.27
1725553219.203;200;25.37;34232.13
1725553219.253;200;26.71;34619.60
1725553219.303;200;26.71;34619.60
1725553219.353;200;26.71;34619.60
1725553219.404;200;28.43;35118.67
1725553219.454;200;27.67;34898.67
1725553219.504;200;27.67;34898.67
1725553219.553;200;27.67;34898.67
1725553219.605;200;28.96;35270.67
1725553219.655;200;29.00;35282.00
1725553219.705;200;29.00;35282.00
1725553219.756;200;29.00;35282.00
1725553219.806;200;26.29;34499.73
1725553219.855;200;23.45;33677.60
1725553219.905;200;23.45;33677.60
1725553219.956;200;28.43;35116.40
1725553220.006;200;24.97;34116.80
1725553220.056;200;24.86;34084.46
1725553220.106;200;24.86;34084.46
1725553220.156;200;28.81;35226.93
1725553220.206;200;25.99;34412.00
1725553220.255;200;23.10;33577.87
1725553220.305;200;23.10;33577.87
1725553220.356;200;25.23;34192.93
1725553220.405;200;28.98;35275.20
1725553220.457;200;25.98;34409.20
1725553220.507;200;25.98;34409.20
1725553220.557;200;25.98;34409.20
1725553220.607;200;28.25;35064.93
1725553220.661;200;26.49;34556.93
1725553220.708;200;26.49;34556.93
1725553220.758;200;26.49;34556.93
1725553220.808;200;26.08;34437.20
1725553220.858;200;27.31;34794.33
1725553220.908;200;27.31;34794.33
1725553220.958;200;27.31;34794.33
1725553221.007;200;22.57;33425.27
1725553221.058;200;23.17;33596.07
1725553221.108;200;23.17;33596.07
1725553221.158;200;24.80;34067.46
1725553221.208;200;27.39;34817.33
1725553221.258;200;26.18;34468.67
1725553221.308;200;26.18;34468.67
1725553221.358;200;26.18;34468.67
1725553221.409;200;27.99;34990.93
1725553221.459;200;22.75;33475.60
1725553221.509;200;22.75;33475.60
1725553221.559;200;22.75;33475.60
1725553221.610;200;28.42;35113.33
1725553367.686;126;10.00;33296.00
1725553367.736;131;10.00;33206.27
1725553367.785;131;10.00;33206.27
1725553367.835;131;10.00;33206.27
1725553367.887;36;10.00;35138.80
1725553367.937;30;10.00;35257.46
1725553367.986;30;10.00;35257.46
1725553368.036;30;10.00;35257.46
1725553368.086;67;10.00;34497.33
1725553368.136;58;10.00;34681.73
1725553368.187;58;10.00;34681.73
1725553368.237;58;10.00;34681.73
1725553368.287;34;10.00;35167.33
1725553368.337;88;10.00;34074.67
1725553368.387;88;10.00;34074.67
1725553368.437;88;10.00;34074.67
1725553368.494;73;10.00;34380.54
1725553368.540;60;10.00;34637.73
1725553368.590;37;10.00;35108.27
1725553368.640;37;10.00;35108.27
1725553368.690;38;10.00;35091.60
1725553368.741;38;10.00;35091.07
1725553368.790;40;10.00;35041.20
1725553368.841;40;10.00;35041.20
1725553368.890;40;10.00;35041.20
1725553368.941;48;10.00;34888.67
1725553368.991;96;10.00;33915.73
1725553369.042;96;10.00;33915.73
1725553369.091;96;10.00;33915.73
1725553369.141;52;10.00;34808.40
1725553369.191;84;10.00;34152.27
1725553369.241;84;10.00;34152.27
1725553369.291;84;10.00;34152.27
1725553369.342;90;10.00;34039.60
1725553369.391;70;10.00;34437.87
1725553369.441;70;10.00;34437.87
1725553369.491;70;10.00;34437.87
1725553369.542;36;10.00;35130.80
1725553369.592;35;10.00;35160.13
1725553369.643;35;10.00;35160.13
1725553369.692;35;10.00;35160.13
1725553369.743;44;10.00;34958.54
1725553369.794;31;10.00;35223.73
1725553369.844;31;10.00;35223.73
1725553369.893;31;10.00;35223.73
1725553369.944;46;10.00;34924.27
1725553369.994;46;10.00;34925.07
1725553370.044;46;10.00;34925.07
1725553370.095;46;10.00;34925.07
1725553370.144;55;10.00;34741.87
1725553370.194;41;10.00;35034.13
1725553370.245;41;10.00;35034.13
1725553370.294;41;10.00;35034.13
1725553370.344;94;10.00;33952.46
1725553370.394;63;10.00;34592.20
1725553370.445;63;10.00;34592.20
1725553370.494;63;10.00;34592.20
1725553370.544;50;10.00;34844.67
1725553370.594;58;10.00;34676.67
1725553370.644;58;10.00;34676.67
1725553370.694;58;10.00;34676.67
1725553370.744;37;10.00;35105.07
1725553370.794;45;10.00;34944.00
1725553370.844;45;10.00;34944.00
1725553370.895;45;10.00;34944.00
1725553370.945;33;10.00;35196.00
1725553370.995;33;10.00;35188.00
1725553371.050;33;10.00;35188.00
1725553371.098;48;10.00;34895.20
1725553371.148;40;10.00;35056.40
1725553371.198;70;10.00;34450.00
1725553371.249;70;10.00;34450.00
1725553371.299;42;10.00;35005.73
1725553371.350;76;10.00;34323.33
1725553371.400;76;10.00;34323.33
1725553371.450;76;10.00;34323.33
1725553371.500;38;10.00;35098.67
1725553371.550;69;10.00;34470.13
1725553371.601;44;10.00;34968.13
1725553371.650;44;10.00;34968.13
1725553371.700;50;10.00;34854.27
1725553371.750;78;10.00;34280.40
1725553371.800;49;10.00;34867.87
1725553371.850;49;10.00;34867.87
1725553371.900;65;10.00;34545.07
1725553371.951;79;10.00;34264.40
1725553372.001;58;10.00;34691.33
1725553372.051;58;10.00;34691.33
1725553372.102;63;10.00;34573.46
1725553372.151;45;10.00;34947.07
1725553372.201;46;10.00;34929.20
1725553372.252;46;10.00;34929.20
1725553372.302;45;10.00;34944.27
1725553372.352;75;10.00;34344.54
1725553372.402;47;10.00;34901.46
1725553372.452;47;10.00;34901.46
1725553372.502;47;10.00;34901.46
1725553372.552;118;10.00;33470.60
1725553372.603;31;10.00;35228.00
1725553372.653;31;10.00;35228.00
1725553372.702;31;10.00;35228.00
1725553372.753;54;10.00;34755.87
1725553384.747;99;10.00;33851.20
1725553384.797;95;10.00;33924.00
1725553384.847;95;10.00;33924.00
1725553384.897;96;10.00;33916.80
1725553384.946;30;10.00;35251.46
1725553384.997;30;10.00;35251.46
1725553385.047;30;10.00;35251.46
1725553385.097;50;10.00;34840.27
1725553385.147;79;10.00;34249.60
1725553385.197;79;10.00;34249.60
1725553385.248;79;10.00;34249.60
1725553385.297;82;10.00;34204.80
1725553385.351;41;10.00;35037.33
1725553385.398;88;10.00;34074.33
1725553385.448;88;10.00;34074.33
1725553385.498;48;10.00;34895.07
1725553385.548;78;10.00;34284.00
1725553385.597;83;10.00;34169.87
1725553385.648;83;10.00;34169.87
1725553385.698;83;10.00;34169.87
1725553385.749;59;10.00;34669.20
1725553385.799;48;10.00;34880.54
1725553385.849;48;10.00;34880.54
1725553385.899;48;10.00;34880.54
1725553385.949;33;10.00;35192.87
1725553385.999;48;10.00;34891.07
1725553386.049;48;10.00;34891.07
1725553386.099;48;10.00;34891.07
1725553386.149;32;10.00;35209.33
1725553386.199;68;10.00;34484.54
1725553386.249;68;10.00;34484.54
1725553386.299;68;10.00;34484.54
1725553386.349;68;10.00;34484.54
1725553386.399;81;10.00;34208.54
1725553386.450;81;10.00;34208.54
1725553386.500;81;10.00;34208.54
1725553386.550;36;10.00;35137.33
1725553386.600;73;10.00;34373.87
1725553386.650;73;10.00;34373.87
1725553386.700;73;10.00;34373.87
1725553386.750;54;10.00;34768.54
1725553386.800;90;10.00;34025.60
1725553386.850;90;10.00;34025.60
1725553386.899;90;10.00;34025.60
1725553386.950;45;10.00;34951.87
1725553387.000;58;10.00;34685.33
1725553387.051;58;10.00;34685.33
1725553387.100;56;10.00;34730.00
1725553387.150;47;10.00;34906.40
1725553387.200;47;10.00;34906.40
1725553387.251;47;10.00;34906.40
1725553387.301;58;10.00;34682.67
1725553387.351;34;10.00;35161.46
1725553387.402;34;10.00;35161.46
1725553387.452;34;10.00;35161.46
1725553387.502;67;10.00;34504.40
1725553387.552;48;10.00;34892.00
1725553387.603;48;10.00;34892.00
1725553387.653;48;10.00;34892.00
1725553387.704;41;10.00;35018.67
1725553387.754;36;10.00;35122.67
1725553387.804;94;10.00;33955.60
1725553387.853;94;10.00;33955.60
1725553387.904;81;10.00;34210.40
1725553387.954;36;10.00;35127.46
1725553388.003;44;10.00;34967.33
1725553388.054;44;10.00;34967.33
1725553388.104;44;10.00;34967.33
1725553388.154;43;10.00;34990.27
1725553388.204;60;10.00;34636.13
1725553388.254;60;10.00;34636.13
1725553388.304;83;10.00;34186.80
1725553388.354;43;10.00;34998.27
1725553388.404;62;10.00;34599.46
1725553388.455;62;10.00;34599.46
1725553388.504;62;10.00;34599.46
1725553388.554;37;10.00;35106.40
1725553388.604;42;10.00;35016.40
1725553388.655;42;10.00;35016.40
1725553388.705;42;10.00;35016.40
1725553388.755;36;10.00;35124.13
1725553388.805;59;10.00;34665.33
1725553388.855;59;10.00;34665.33
1725553388.905;59;10.00;34665.33
1725553388.955;33;10.00;35184.93
1725553389.005;70;10.00;34449.73
1725553389.055;70;10.00;34449.73
1725553389.105;49;10.00;34862.27
1725553389.156;62;10.00;34611.87
1725553389.206;55;10.00;34737.46
1725553389.255;55;10.00;34737.46
1725553389.305;76;10.00;34322.27
1725553389.355;37;10.00;35114.80
1725553389.405;43;10.00;34994.93
1725553389.456;43;10.00;34994.93
1725553389.505;49;10.00;34857.87
1725553389.555;36;10.00;35137.60
1725553389.605;40;10.00;35049.93
1725553389.656;40;10.00;35049.93
1725553389.706;59;10.00;34657.33
1725553389.756;45;10.00;34946.54
1725553389.806;53;10.00;34789.46
1725553389.857;53;10.00;34789.46
1725553389.906;53;10.00;34789.46
1725553389.956;99;10.00;33844.67
1725553390.008;60;10.00;34646.27
1725553401.982;133;10.00;33170.46
1725553402.033;110;10.00;33622.00
1725553402.082;110;10.00;33622.00
1725553402.132;110;10.00;33622.00
1725553402.182;116;10.00;33500.27
1725553402.232;59;10.00;34657.33
1725553402.282;59;10.00;34657.33
1725553402.332;59;10.00;34657.33
1725553402.382;82;10.00;34204.54
1725553402.432;47;10.00;34901.60
1725553402.482;47;10.00;34901.60
1725553402.532;47;10.00;34901.60
1725553402.582;36;10.00;35135.60
1725553402.632;36;10.00;35135.60
1725553402.682;36;10.00;35135.60
1725553402.732;61;10.00;34618.80
1725553402.782;35;10.00;35160.54
1725553402.833;47;10.00;34911.20
1725553402.884;47;10.00;34911.20
1725553402.933;56;10.00;34726.13
1725553402.984;36;10.00;35137.07
1725553403.033;60;10.00;34637.54
1725553403.084;60;10.00;34637.54
1725553403.134;60;10.00;34637.54
1725553403.184;74;10.00;34355.07
1725553403.233;83;10.00;34168.67
1725553403.284;83;10.00;34168.67
1725553403.334;83;10.00;34168.67
1725553403.384;48;10.00;34893.87
1725553403.434;38;10.00;35083.73
1725553403.484;38;10.00;35083.73
1725553403.533;38;10.00;35083.73
1725553403.584;55;10.00;34752.67
1725553403.634;29;10.00;35282.00
1725553403.685;29;10.00;35282.00
1725553403.734;55;10.00;34753.07
1725553403.785;46;10.00;34925.87
1725553403.835;68;10.00;34471.87
1725553403.885;68;10.00;34471.87
1725553403.935;48;10.00;34882.27
1725553403.986;41;10.00;35031.87
1725553404.035;45;10.00;34937.87
1725553404.085;45;10.00;34937.87
1725553404.136;43;10.00;34996.67
1725553404.186;51;10.00;34835.20
1725553404.236;64;10.00;34566.93
1725553404.286;64;10.00;34566.93
1725553404.336;64;10.00;34566.93
1725553404.386;63;10.00;34589.46
1725553404.438;33;10.00;35196.93
1725553404.488;33;10.00;35196.93
1725553404.538;38;10.00;35098.93
1725553404.588;35;10.00;35151.20
1725553404.638;62;10.00;34609.60
1725553404.688;62;10.00;34609.60
1725553404.737;62;10.00;34609.60
1725553404.789;40;10.00;35051.73
1725553404.839;47;10.00;34899.07
1725553404.889;47;10.00;34899.07
1725553404.939;52;10.00;34812.00
1725553404.996;75;10.00;34332.80
1725553405.042;61;10.00;34630.93
1725553405.093;61;10.00;34630.93
1725553405.143;61;10.00;34630.93
1725553405.192;30;10.00;35253.60
1725553405.243;41;10.00;35033.07
1725553405.292;41;10.00;35033.07
1725553405.342;41;10.00;35033.07
1725553405.394;62;10.00;34606.67
1725553405.443;62;10.00;34606.67
1725553405.493;62;10.00;34606.67
1725553405.544;43;10.00;34990.27
1725553405.594;30;10.00;35242.40
1725553405.643;30;10.00;35242.40
1725553405.695;30;10.00;35242.40
1725553405.745;36;10.00;35124.80
1725553405.795;36;10.00;35124.80
1725553405.845;36;10.00;35124.80
1725553405.895;33;10.00;35194.67
1725553405.945;46;10.00;34924.27
1725553405.995;46;10.00;34924.27
1725553406.046;46;10.00;34924.27
1725553406.096;31;10.00;35230.67
1725553406.147;47;10.00;34916.54
1725553406.197;47;10.00;34916.54
1725553406.246;47;10.00;34916.54
1725553406.297;47;10.00;34916.54
1725553406.347;32;10.00;35209.87
1725553406.398;35;10.00;35150.93
1725553406.448;35;10.00;35150.93
1725553406.497;35;10.00;35150.93
1725553406.549;42;10.00;35006.80
1725553406.599;42;10.00;35006.80
1725553406.649;42;10.00;35006.80
1725553406.699;44;10.00;34958.54
1725553406.749;36;10.00;35125.60
1725553406.799;36;10.00;35125.60
1725553406.849;36;10.00;35125.60
1725553406.899;36;10.00;35125.60
1725553406.949;49;10.00;34875.73
1725553406.999;49;10.00;34875.73
1725553407.049;49;10.00;34875.73
1725553407.099;49;10.00;34875.73
1725553407.150;38;10.00;35096.93
1725553639.714;111;30.00;33609.87
1725553639.764;111;30.00;33609.87
1725553639.814;85;30.00;34144.73
1725553639.864;107;30.00;33700.67
1725553639.914;53;30.00;34788.67
1725553639.964;53;30.00;34788.67
1725553640.014;53;30.00;34788.67
1725553640.064;75;30.00;34342.40
1725553640.115;82;30.00;34200.67
1725553640.165;82;30.00;34200.67
1725553640.215;82;30.00;34200.67
1725553640.265;87;30.00;34092.27
1725553640.315;71;30.00;34424.27
1725553640.365;71;30.00;34424.27
1725553640.416;71;30.00;34424.27
1725553640.465;98;30.00;33875.46
1725553640.516;64;30.00;34559.07
1725553640.566;64;30.00;34559.07
1725553640.616;58;30.00;34685.33
1725553640.666;98;30.00;33865.87
1725553640.717;80;30.00;34242.13
1725553640.766;80;30.00;34242.13
1725553640.817;80;30.00;34242.13
1725553640.867;33;30.00;35183.20
1725553640.916;79;30.00;34250.60
1725553640.967;79;30.00;34250.60
1725553641.017;79;30.00;34250.60
1725553641.068;32;30.00;35218.54
1725553641.118;33;30.00;35196.80
1725553641.168;33;30.00;35196.80
1725553641.217;35;30.00;35143.60
1725553641.267;43;30.00;34994.54
1725553641.319;115;30.00;33524.40
1725553641.369;115;30.00;33524.40
1725553641.419;115;30.00;33524.40
1725553641.469;44;30.00;34963.60
1725553641.518;102;30.00;33789.33
1725553641.569;102;30.00;33789.33
1725553641.619;102;30.00;33789.33
1725553641.669;29;30.00;35282.00
1725553641.719;36;30.00;35136.40
1725553641.769;36;30.00;35136.40
1725553641.819;36;30.00;35136.40
1725553641.869;63;30.00;34578.40
1725553641.919;29;30.00;35282.00
1725553641.969;29;30.00;35282.00
1725553642.018;42;30.00;35003.33
1725553642.069;123;30.00;33372.27
1725553642.119;43;30.00;34990.93
1725553642.168;43;30.00;34990.93
1725553642.219;43;30.00;34990.93
1725553642.270;29;30.00;35282.00
1725553642.320;52;30.00;34805.60
1725553642.370;52;30.00;34805.60
1725553642.420;52;30.00;34805.60
1725553642.470;52;30.00;34805.60
1725553642.520;35;30.00;35143.20
1725553642.571;29;30.00;35265.60
1725553642.621;29;30.00;35265.60
1725553642.672;29;30.00;35265.60
1725553642.722;41;30.00;35022.00
1725553642.771;29;30.00;35282.00
1725553642.821;29;30.00;35282.00
1725553642.871;29;30.00;35282.00
1725553642.921;43;30.00;34979.87
1725553642.972;43;30.00;34979.87
1725553643.021;43;30.00;34979.87
1725553643.072;32;30.00;35201.33
1725553643.121;53;30.00;34785.87
1725553643.171;53;30.00;34785.87
1725553643.222;53;30.00;34785.87
1725553643.271;42;30.00;35014.54
1725553643.322;42;30.00;35014.54
1725553643.371;42;30.00;35014.54
1725553643.421;47;30.00;34916.40
1725553643.472;32;30.00;35212.80
1725553643.522;32;30.00;35212.80
1725553643.575;32;30.00;35212.80
1725553643.622;50;30.00;34853.60
1725553643.671;50;30.00;34853.60
1725553643.721;50;30.00;34853.60
1725553643.772;48;30.00;34893.87
1725553643.821;63;30.00;34592.00
1725553643.872;63;30.00;34592.00
1725553643.922;63;30.00;34592.00
1725553643.972;63;30.00;34592.00
1725553644.022;37;30.00;35110.54
1725553644.072;37;30.00;35110.54
1725553644.122;37;30.00;35110.54
1725553644.172;41;30.00;35032.80
1725553644.222;51;30.00;34822.40
1725553644.271;51;30.00;34822.40
1725553644.322;51;30.00;34822.40
1725553644.372;51;30.00;34822.40
1725553644.422;52;30.00;34809.46
1725553644.472;74;30.00;34352.93
1725553644.522;74;30.00;34352.93
1725553644.572;74;30.00;34352.93
1725553644.622;74;30.00;34358.13
1725553644.672;37;30.00;35101.20
1725553644.722;37;30.00;35101.20
1725553644.772;37;30.00;35101.20
1725553644.823;69;30.00;34451.73
1725553644.872;95;30.00;33928.93
1725553644.923;54;30.00;34758.40
1725553644.972;54;30.00;34758.40
1725553645.023;40;30.00;35048.54
1725553645.072;68;30.00;34473.46
1725553656.490;132;30.00;33184.00
1725553657.091;84;30.00;34152.54
1725553657.140;87;30.00;34094.67
1725553657.191;87;30.00;34094.67
1725553657.241;87;30.00;34094.67
1725553657.291;29;30.00;35282.00
1725553657.341;62;30.00;34602.00
1725553657.391;62;30.00;34602.00
1725553657.441;58;30.00;34677.60
1725553657.491;61;30.00;34617.87
1725553657.541;58;30.00;34675.67
1725553657.591;58;30.00;34675.67
1725553657.641;45;30.00;34944.67
1725553657.691;48;30.00;34877.40
1725553657.741;48;30.00;34877.40
1725553657.791;48;30.00;34877.40
1725553657.841;35;30.00;35158.40
1725553657.891;31;30.00;35232.40
1725553657.941;29;30.00;35282.00
1725553657.990;29;30.00;35282.00
1725553658.040;29;30.00;35282.00
1725553658.091;37;30.00;35113.46
1725553658.141;44;30.00;34973.33
1725553658.192;44;30.00;34973.33
1725553658.241;44;30.00;34973.33
1725553658.291;30;30.00;35246.67
1725553658.342;35;30.00;35140.46
1725553658.392;35;30.00;35140.46
1725553658.442;29;30.00;35282.00
1725553658.492;37;30.00;35106.27
1725553658.542;37;30.00;35106.27
1725553658.592;37;30.00;35106.27
1725553658.642;71;30.00;34413.73
1725553658.691;46;30.00;34935.87
1725553658.743;40;30.00;35044.80
1725553658.793;40;30.00;35044.80
1725553658.843;31;30.00;35227.20
1725553658.893;47;30.00;34900.27
1725553658.943;57;30.00;34711.60
1725553658.993;57;30.00;34711.60
1725553659.043;57;30.00;34711.60
1725553659.093;49;30.00;34862.27
1725553659.144;31;30.00;35228.27
1725553659.193;31;30.00;35228.27
1725553659.244;31;30.00;35228.27
1725553659.294;49;30.00;34866.40
1725553659.344;40;30.00;35051.87
1725553659.395;40;30.00;35051.87
1725553659.445;40;30.00;35051.87
1725553659.495;45;30.00;34950.67
1725553659.545;75;30.00;34334.13
1725553659.595;75;30.00;34334.13
1725553659.645;75;30.00;34334.13
1725553659.695;72;30.00;34400.40
1725553659.745;29;30.00;35282.00
1725553659.795;29;30.00;35282.00
1725553659.845;29;30.00;35282.00
1725553659.896;29;30.00;35282.00
1725553659.946;31;30.00;35221.87
1725553659.996;31;30.00;35221.87
1725553660.046;31;30.00;35221.87
1725553660.096;31;30.00;35221.87
1725553660.146;54;30.00;34760.00
1725553660.195;54;30.00;34760.00
1725553660.246;54;30.00;34760.00
1725553660.296;35;30.00;35160.00
1725553660.346;30;30.00;35242.80
1725553660.396;30;30.00;35242.80
1725553660.446;30;30.00;35242.80
1725553660.496;37;30.00;35105.20
1725553660.547;64;30.00;34559.27
1725553660.596;64;30.00;34559.27
1725553660.647;64;30.00;34559.27
1725553660.697;55;30.00;34740.40
1725553660.747;29;30.00;35282.00
1725553660.797;29;30.00;35282.00
1725553660.847;56;30.00;34717.20
1725553660.898;40;30.00;35052.27
1725553660.948;40;30.00;35052.27
1725553660.999;40;30.00;35052.27
1725553661.048;33;30.00;35193.20
1725553661.099;37;30.00;35101.73
1725553661.149;84;30.00;34152.46
1725553661.199;84;30.00;34152.46
1725553661.249;84;30.00;34152.46
1725553661.299;42;30.00;35013.20
1725553661.349;31;30.00;35225.07
1725553661.399;31;30.00;35225.07
1725553661.449;31;30.00;35225.07
1725553661.499;29;30.00;35282.00
1725553661.549;65;30.00;34541.87
1725553661.599;65;30.00;34541.87
1725553661.649;65;30.00;34541.87
1725553661.699;82;30.00;34196.80
1725553661.751;37;30.00;35115.07
1725553661.799;37;30.00;35115.07
1725553661.850;37;30.00;35115.07
1725553661.900;32;30.00;35217.07
1725553661.949;75;30.00;34336.27
1725553662.000;54;30.00;34767.33
1725553662.049;54;30.00;34767.33
1725553662.101;54;30.00;34767.33
1725553662.150;29;30.00;35282.00
1725553662.200;29;30.00;35282.00
1725553662.251;29;30.00;35282.00
1725553662.300;30;30.00;35254.93
1725553662.350;41;30.00;35027.73
1725553674.837;108;30.00;33667.33
1725553674.889;108;30.00;33667.33
1725553674.939;108;30.00;33667.33
1725553674.989;77;30.00;34308.00
1725553675.038;31;30.00;35241.07
1725553675.089;31;30.00;35241.07
1725553675.138;49;30.00;34863.07
1725553675.189;83;30.00;34177.73
1725553675.239;93;30.00;33983.33
1725553675.289;93;30.00;33983.33
1725553675.339;36;30.00;35137.33
1725553675.389;62;30.00;34612.80
1725553675.439;54;30.00;34762.27
1725553675.489;54;30.00;34762.27
1725553675.538;40;30.00;35040.67
1725553675.589;82;30.00;34192.40
1725553675.639;73;30.00;34384.46
1725553675.689;73;30.00;34384.46
1725553675.739;73;30.00;34384.46
1725553675.789;60;30.00;34643.07
1725553675.839;56;30.00;34729.33
1725553675.889;56;30.00;34729.33
1725553675.939;56;30.00;34729.33
1725553675.989;46;30.00;34929.33
1725553676.039;68;30.00;34487.33
1725553676.089;68;30.00;34487.33
1725553676.139;68;30.00;34487.33
1725553676.189;56;30.00;34731.20
1725553676.239;29;30.00;35282.00
1725553676.289;29;30.00;35282.00
1725553676.339;29;30.00;35282.00
1725553676.390;52;30.00;34810.27
1725553676.440;39;30.00;35076.40
1725553676.489;39;30.00;35076.40
1725553676.539;39;30.00;35076.40
1725553676.590;32;30.00;35212.00
1725553676.639;37;30.00;35118.67
1725553676.689;37;30.00;35118.67
1725553676.740;37;30.00;35118.67
1725553676.791;33;30.00;35198.93
1725553676.840;49;30.00;34874.93
1725553676.891;49;30.00;34874.93
1725553676.941;49;30.00;34874.93
1725553676.991;36;30.00;35120.54
1725553677.041;35;30.00;35141.60
1725553677.091;35;30.00;35141.60
1725553677.141;35;30.00;35141.60
1725553677.192;30;30.00;35255.46
1725553677.242;37;30.00;35115.07
1725553677.292;37;30.00;35115.07
1725553677.341;37;30.00;35115.07
1725553677.391;37;30.00;35115.07
1725553677.443;82;30.00;34206.00
1725553677.494;82;30.00;34206.00
1725553677.544;82;30.00;34206.00
1725553677.594;59;30.00;34656.33
1725553677.644;40;30.00;35045.46
1725553677.694;40;30.00;35045.46
1725553677.744;40;30.00;35045.46
1725553677.794;43;30.00;34990.80
1725553677.844;86;30.00;34119.46
1725553677.894;86;30.00;34119.46
1725553677.945;59;30.00;34658.54
1725553677.995;72;30.00;34400.87
1725553678.045;98;30.00;33873.27
1725553678.095;98;30.00;33873.27
1725553678.145;98;30.00;33873.27
1725553678.195;93;30.00;33973.40
1725553678.246;118;30.00;33466.93
1725553678.296;118;30.00;33466.93
1725553678.346;118;30.00;33466.93
1725553678.396;29;30.00;35282.00
1725553678.446;35;30.00;35143.07
1725553678.496;35;30.00;35143.07
1725553678.546;35;30.00;35143.07
1725553678.596;43;30.00;34995.33
1725553678.646;48;30.00;34887.46
1725553678.696;48;30.00;34887.46
1725553678.745;48;30.00;34887.46
1725553678.795;46;30.00;34930.67
1725553678.846;34;30.00;35170.13
1725553678.896;34;30.00;35170.13
1725553678.947;34;30.00;35170.13
1725553678.997;30;30.00;35258.67
1725553679.048;66;30.00;34528.67
1725553679.099;66;30.00;34528.67
1725553679.148;66;30.00;34528.67
1725553679.197;44;30.00;34974.54
1725553679.247;36;30.00;35127.20
1725553679.298;36;30.00;35127.20
1725553679.348;36;30.00;35127.20
1725553679.399;38;30.00;35096.93
1725553679.449;36;30.00;35138.67
1725553679.499;36;30.00;35138.67
1725553679.549;36;30.00;35138.67
1725553679.599;31;30.00;35240.54
1725553679.649;32;30.00;35207.73
1725553679.700;32;30.00;35207.73
1725553679.750;32;30.00;35207.73
1725553679.799;35;30.00;35141.73
1725553679.849;39;30.00;35059.87
1725553679.900;39;30.00;35059.87
1725553679.950;39;30.00;35059.87
1725553680.000;43;30.00;34994.73
1725553783.508;350;22.88;33513.00
1725553783.559;350;22.88;33513.00
1725553783.609;350;22.88;33513.00
1725553783.659;350;24.24;33907.33
1725553783.710;350;29.00;35282.00
1725553783.760;350;29.00;35282.00
1725553783.810;350;29.00;35282.00
1725553783.860;350;27.75;34920.40
1725553783.910;350;22.21;33320.87
1725553783.960;350;22.21;33320.87
1725553784.010;350;22.21;33320.87
1725553784.060;350;24.47;33971.87
1725553784.110;350;27.25;34776.00
1725553784.160;350;24.36;33941.07
1725553784.210;350;24.36;33941.07
1725553784.260;350;24.43;33961.87
1725553784.310;350;28.30;35078.87
1725553784.361;350;28.53;35146.40
1725553784.411;350;28.53;35146.40
1725553784.461;350;26.42;34535.73
1725553784.511;350;28.42;35115.73
1725553784.561;350;22.45;33388.73
1725553784.611;350;22.45;33388.73
1725553784.660;350;23.34;33645.67
1725553784.712;350;25.30;34212.80
1725553784.761;350;22.67;33452.00
1725553784.812;350;22.67;33452.00
1725553784.861;350;22.67;33452.00
1725553784.911;350;26.37;34523.60
1725553784.962;350;26.85;34660.13
1725553785.012;350;26.85;34660.13
1725553785.061;350;26.85;34660.13
1725553785.111;350;28.18;35045.46
1725553785.161;350;25.95;34401.73
1725553785.211;350;25.95;34401.73
1725553785.261;350;22.46;33392.67
1725553785.311;350;23.84;33791.73
1725553785.361;350;24.49;33978.80
1725553785.412;350;24.49;33978.80
1725553785.461;350;29.00;35282.00
1725553785.511;350;24.28;33917.00
1725553785.561;350;24.28;33917.00
1725553785.611;350;24.28;33917.00
1725553785.663;350;23.33;33644.00
1725553785.713;350;29.00;35282.00
1725553785.763;350;29.00;35282.00
1725553785.813;350;29.00;35282.00
1725553785.863;350;29.00;35282.00
1725553785.913;350;29.00;35282.00
1725553785.964;350;29.00;35282.00
1725553786.014;350;29.00;35282.00
1725553786.063;350;29.00;35282.00
1725553786.114;350;29.00;35282.00
1725553786.163;350;29.00;35282.00
1725553786.213;350;23.58;33716.13
1725553786.263;350;28.16;35040.13
1725553786.313;350;28.16;35040.13
1725553786.363;350;28.16;35040.13
1725553786.414;350;24.25;33908.80
1725553786.463;350;28.62;35172.00
1725553786.513;350;28.62;35172.00
1725553786.564;350;28.62;35172.00
1725553786.614;350;25.77;34350.13
1725553786.664;350;21.97;33251.07
1725553786.713;350;21.97;33251.07
1725553786.763;350;24.95;34113.20
1725553786.814;350;26.85;34660.54
1725553786.865;350;23.48;33686.80
1725553786.915;350;23.48;33686.80
1725553786.965;350;25.58;34293.07
1725553787.015;350;29.00;35282.00
1725553787.066;350;24.92;34102.33
1725553787.116;350;24.92;34102.33
1725553787.166;350;24.92;34102.33
1725553787.216;350;23.72;33755.20
1725553787.267;350;28.54;35147.93
1725553787.317;350;28.54;35147.93
1725553787.366;350;28.54;35147.93
1725553787.416;350;26.98;34697.20
1725553787.466;350;23.07;33568.93
1725553787.516;350;23.07;33568.93
1725553787.566;350;23.07;33568.93
1725553787.616;350;29.00;35282.00
1725553787.667;350;29.00;35282.00
1725553787.717;350;29.00;35282.00
1725553787.767;350;29.00;35282.00
1725553787.817;350;23.93;33818.13
1725553787.866;350;29.00;35282.00
1725553787.917;350;29.00;35282.00
1725553787.967;350;28.71;35198.40
1725553788.017;350;25.14;34165.73
1725553788.067;350;25.49;34268.93
1725553788.121;350;25.49;34268.93
1725553788.169;350;24.99;34122.40
1725553788.219;350;23.54;33705.46
1725553788.269;350;23.53;33701.54
1725553788.319;350;23.53;33701.54
1725553788.369;350;24.85;34083.46
1725553788.419;350;22.52;33408.40
1725553788.469;350;26.53;34567.60
1725553788.519;350;26.53;34567.60
1725553788.569;350;24.18;33888.27
1725553788.619;350;29.00;35282.00
1725553788.669;350;24.72;34044.54
1725553788.719;350;24.72;34044.54
1725553788.769;350;24.72;34044.54
1725553788.819;350;29.00;35282.00
1725553800.806;350;22.18;33311.20
1725553800.857;350;25.11;34158.80
1725553800.907;350;25.11;34158.80
1725553800.958;350;25.11;34158.80
1725553801.008;350;28.96;35269.60
1725553801.059;350;29.00;35282.00
1725553801.109;350;29.00;35282.00
1725553801.158;350;29.00;35281.87
1725553801.209;350;27.75;34922.13
1725553801.259;350;22.76;33478.40
1725553801.310;350;22.76;33478.40
1725553801.360;350;22.76;33478.40
1725553801.410;350;29.00;35282.00
1725553801.460;350;25.68;34323.20
1725553801.510;350;25.68;34323.20
1725553801.560;350;25.68;34323.20
1725553801.610;350;27.25;34776.00
1725553801.659;350;21.81;33204.93
1725553801.710;350;21.81;33204.93
1725553801.760;350;21.81;33204.93
1725553801.810;350;24.67;34030.13
1725553801.859;350;24.91;34099.87
1725553801.909;350;24.91;34099.87
1725553801.960;350;24.91;34099.87
1725553802.010;350;24.01;33840.54
1725553802.060;350;28.03;35001.07
1725553802.110;350;28.03;35001.07
1725553802.160;350;28.03;35001.07
1725553802.210;350;29.00;35282.00
1725553802.262;350;29.00;35282.00
1725553802.311;350;29.00;35282.00
1725553802.361;350;29.00;35282.00
1725553802.411;350;29.00;35282.00
1725553802.461;350;27.18;34756.40
1725553802.512;350;27.18;34756.40
1725553802.562;350;27.18;34756.40
1725553802.612;350;28.49;35136.00
1725553802.662;350;28.24;35062.67
1725553802.711;350;28.24;35062.67
1725553802.762;350;28.24;35062.67
1725553802.812;350;29.00;35282.00
1725553802.862;350;23.32;33639.73
1725553802.912;350;23.32;33639.73
1725553802.962;350;23.32;33639.73
1725553803.012;350;29.00;35282.00
1725553803.061;350;22.74;33472.80
1725553803.112;350;22.74;33472.80
1725553803.161;350;23.75;33766.40
1725553803.212;350;23.10;33578.27
1725553803.262;350;21.89;33227.33
1725553803.312;350;21.89;33227.33
1725553803.362;350;21.89;33227.33
1725553803.412;350;24.56;33998.54
1725553803.462;350;26.92;34680.67
1725553803.512;350;26.92;34680.67
1725553803.562;350;26.92;34680.67
1725553803.613;350;29.00;35282.00
1725553803.662;350;23.44;33676.27
1725553803.713;350;23.44;33676.27
1725553803.762;350;23.44;33676.27
1725553803.812;350;23.44;33676.27
1725553803.862;350;23.90;33808.40
1725553803.913;350;23.90;33808.40
1725553803.963;350;23.90;33808.40
1725553804.013;350;23.90;33808.40
1725553804.062;350;29.00;35282.00
1725553804.113;350;29.00;35282.00
1725553804.163;350;29.00;35282.00
1725553804.213;350;29.00;35282.00
1725553804.262;350;25.01;34129.93
1725553804.313;350;25.01;34129.93
1725553804.363;350;25.01;34129.93
1725553804.413;350;25.01;34129.93
1725553804.462;350;29.00;35282.00
1725553804.513;350;29.00;35282.00
1725553804.563;350;29.00;35282.00
1725553804.613;350;29.00;35282.00
1725553804.663;350;23.06;33565.13
1725553804.713;350;29.00;35282.00
1725553804.763;350;26.73;34627.60
1725553804.813;350;26.73;34627.60
1725553804.863;350;26.73;34627.60
1725553804.913;350;22.29;33341.87
1725553804.964;350;24.26;33911.00
1725553805.014;350;24.26;33911.00
1725553805.064;350;24.26;33911.00
1725553805.114;350;23.96;33827.07
1725553805.164;350;26.94;34686.40
1725553805.214;350;26.94;34686.40
1725553805.264;350;26.94;34686.40
1725553805.314;350;25.25;34199.80
1725553805.365;350;26.85;34659.67
1725553805.415;350;26.85;34659.67
1725553805.465;350;26.85;34659.67
1725553805.516;350;22.14;33299.87
1725553805.565;350;24.03;33846.60
1725553805.616;350;24.03;33846.60
1725553805.666;350;24.03;33846.60
1725553805.716;350;24.49;33978.80
1725553805.767;350;28.49;35135.73
1725553805.816;350;28.49;35135.73
1725553805.865;350;28.49;35135.73
1725553805.915;350;23.53;33702.54
1725553805.966;350;26.99;34702.67
1725553806.016;350;26.99;34702.67
1725553806.066;350;26.99;34702.67
1725553806.116;350;26.99;34702.67
1725553818.362;350;24.67;34030.00
1725553818.412;350;24.67;34030.00
1725553818.461;350;24.67;34030.00
1725553818.511;350;23.93;33817.60
1725553818.562;350;25.77;34348.54
1725553818.612;350;25.77;34348.54
1725553818.661;350;25.77;34348.54
1725553818.711;350;26.98;34699.60
1725553818.762;350;24.10;33865.33
1725553818.812;350;24.10;33865.33
1725553818.862;350;24.10;33865.33
1725553818.912;350;27.19;34760.27
1725553818.962;350;27.19;34760.27
1725553819.012;350;27.19;34760.27
1725553819.063;350;27.19;34760.27
1725553819.112;350;25.74;34340.40
1725553819.162;350;25.03;34135.87
1725553819.213;350;25.03;34135.87
1725553819.262;350;25.03;34135.87
1725553819.313;350;24.05;33851.87
1725553819.363;350;24.21;33898.67
1725553819.412;350;24.21;33898.67
1725553819.463;350;24.21;33898.67
1725553819.512;350;27.25;34776.13
1725553819.562;350;28.50;35138.40
1725553819.613;350;28.50;35138.40
1725553819.662;350;28.50;35138.40
1725553819.713;350;28.60;35165.60
1725553819.763;350;28.43;35118.67
1725553819.813;350;27.71;34908.54
1725553819.863;350;27.71;34908.54
1725553819.913;350;27.71;34908.54
1725553819.963;350;22.86;33506.93
1725553820.013;350;26.62;34595.33
1725553820.063;350;26.62;34595.33
1725553820.113;350;26.62;34595.33
1725553820.163;350;26.25;34487.87
1725553820.213;350;27.62;34883.46
1725553820.263;350;27.62;34883.46
1725553820.313;350;27.66;34893.73
1725553820.363;350;24.50;33980.93
1725553820.413;350;24.31;33926.13
1725553820.463;350;24.31;33926.13
1725553820.513;350;24.42;33957.54
1725553820.563;350;28.12;35026.54
1725553820.613;350;28.12;35026.54
1725553820.664;350;28.12;35026.54
1725553820.713;350;22.59;33428.54
1725553820.763;350;27.90;34964.13
1725553820.813;350;28.24;35062.93
1725553820.864;350;28.24;35062.93
1725553820.915;350;28.24;35062.93
1725553820.965;350;24.11;33868.27
1725553821.015;350;23.72;33757.73
1725553821.065;350;23.72;33757.73
1725553821.115;350;23.72;33757.73
1725553821.165;350;25.29;34210.40
1725553821.215;350;29.00;35282.00
1725553821.265;350;29.00;35282.00
1725553821.315;350;29.00;35282.00
1725553821.365;350;29.00;35282.00
1725553821.415;350;29.00;35282.00
1725553821.465;350;29.00;35282.00
1725553821.515;350;22.67;33452.33
1725553821.565;350;29.00;35282.00
1725553821.615;350;29.00;35282.00
1725553821.665;350;29.00;35282.00
1725553821.717;350;29.00;35282.00
1725553821.766;350;29.00;35282.00
1725553821.817;350;29.00;35282.00
1725553821.867;350;28.25;35066.40
1725553821.918;350;29.00;35282.00
1725553821.968;350;29.00;35282.00
1725553822.019;350;29.00;35282.00
1725553822.068;350;29.00;35282.00
1725553822.119;350;29.00;35282.00
1725553822.168;350;27.06;34722.40
1725553822.219;350;27.06;34722.40
1725553822.269;350;27.06;34722.40
1725553822.318;350;24.79;34064.40
1725553822.368;350;27.02;34711.07
1725553822.420;350;27.02;34711.07
1725553822.470;350;27.02;34711.07
1725553822.520;350;28.81;35226.67
1725553822.569;350;24.63;34019.07
1725553822.620;350;24.63;34019.07
1725553822.669;350;24.63;34019.07
1725553822.720;350;28.15;35037.33
1725553822.770;350;21.64;33154.80
1725553822.819;350;21.97;33250.00
1725553822.870;350;21.97;33250.00
1725553822.919;350;24.85;34082.54
1725553822.969;350;28.07;35012.13
1725553823.020;350;28.07;35012.13
1725553823.070;350;28.07;35012.13
1725553823.119;350;22.77;33482.27
1725553823.169;350;28.78;35218.73
1725553823.220;350;26.71;34619.07
1725553823.269;350;26.71;34619.07
1725553823.320;350;26.71;34619.07
1725553823.370;350;22.26;33333.80
1725553823.420;350;23.53;33700.33
1725553823.470;350;23.53;33700.33
1725553823.520;350;25.24;34196.73
1725553823.570;350;25.65;34314.73
1725553928.705;500;22.55;33417.87
1725553928.755;500;22.55;33417.87
1725553928.805;500;22.55;33417.87
1725553928.855;500;22.55;33417.87
1725553928.905;500;28.10;35020.67
1725553928.955;500;28.10;35020.67
1725553929.005;500;28.10;35020.67
1725553929.056;500;29.00;35282.00
1725553929.106;500;29.00;35282.00
1725553929.155;500;29.00;35282.00
1725553929.205;500;29.00;35282.00
1725553929.257;500;29.00;35282.00
1725553929.307;500;26.61;34592.00
1725553929.357;500;26.61;34592.00
1725553929.407;500;26.61;34592.00
1725553929.457;500;29.00;35282.00
1725553929.509;500;29.00;35282.00
1725553929.558;500;29.00;35282.00
1725553929.608;500;29.00;35282.00
1725553929.658;500;29.00;35282.00
1725553929.709;500;24.30;33922.54
1725553929.759;500;28.76;35211.46
1725553929.809;500;28.76;35211.46
1725553929.859;500;28.76;35211.46
1725553929.909;500;27.28;34784.13
1725553929.959;500;26.03;34423.07
1725553930.009;500;26.03;34423.07
1725553930.059;500;26.83;34654.54
1725553930.109;500;22.88;33512.67
1725553930.158;500;22.88;33512.67
1725553930.208;500;22.88;33512.67
1725553930.259;500;22.88;33512.67
1725553930.309;500;28.15;35036.93
1725553930.359;500;28.15;35036.93
1725553930.409;500;28.15;35036.93
1725553930.459;500;22.70;33462.54
1725553930.509;500;22.18;33311.87
1725553930.559;500;22.18;33311.87
1725553930.609;500;22.18;33311.87
1725553930.660;500;29.00;35282.00
1725553930.710;500;28.63;35174.13
1725553930.759;500;28.63;35174.13
1725553930.810;500;28.63;35174.13
1725553930.860;500;28.63;35174.13
1725553930.909;500;22.22;33324.27
1725553930.960;500;23.29;33631.60
1725553931.009;500;23.29;33631.60
1725553931.060;500;28.59;35162.80
1725553931.110;500;26.65;34603.07
1725553931.159;500;26.65;34603.07
1725553931.210;500;26.65;34603.07
1725553931.259;500;25.77;34349.20
1725553931.310;500;28.80;35223.20
1725553931.359;500;28.80;35223.20
1725553931.409;500;28.80;35223.20
1725553931.460;500;28.51;35140.54
1725553931.510;500;29.00;35282.00
1725553931.560;500;29.00;35282.00
1725553931.611;500;29.00;35282.00
1725553931.661;500;29.00;35282.00
1725553931.711;500;29.00;35282.00
1725553931.761;500;29.00;35282.00
1725553931.812;500;29.00;35282.00
1725553931.862;500;29.00;35282.00
1725553931.912;500;29.00;35282.00
1725553931.962;500;29.00;35282.00
1725553932.013;500;29.00;35282.00
1725553932.062;500;27.86;34954.13
1725553932.113;500;29.00;35282.00
1725553932.162;500;29.00;35282.00
1725553932.212;500;29.00;35282.00
1725553932.263;500;28.04;35005.73
1725553932.312;500;29.00;35282.00
1725553932.363;500;29.00;35282.00
1725553932.413;500;29.00;35282.00
1725553932.463;500;29.00;35282.00
1725553932.514;500;28.23;35059.60
1725553932.563;500;28.23;35059.60
1725553932.614;500;28.23;35059.60
1725553932.664;500;24.84;34079.33
1725553932.714;500;26.90;34675.46
1725553932.764;500;26.05;34429.73
1725553932.815;500;26.05;34429.73
1725553932.864;500;28.90;35253.60
1725553932.915;500;27.86;34952.54
1725553932.965;500;27.86;34952.54
1725553933.015;500;27.86;34952.54
1725553933.066;500;27.86;34952.54
1725553933.116;500;29.00;35282.00
1725553933.165;500;29.00;35282.00
1725553933.216;500;29.00;35282.00
1725553933.266;500;29.00;35282.00
1725553933.316;500;29.00;35282.00
1725553933.367;500;29.00;35282.00
1725553933.416;500;29.00;35282.00
1725553933.467;500;29.00;35282.00
1725553933.518;500;27.92;34971.33
1725553933.568;500;27.92;34971.33
1725553933.618;500;27.92;34971.33
1725553933.668;500;29.00;35282.00
1725553933.719;500;27.74;34916.93
1725553933.768;500;27.74;34916.93
1725553933.819;500;27.74;34916.93
1725553933.869;500;28.23;35061.07
1725553945.852;500;21.73;33181.73
1725553945.903;500;21.73;33181.73
1725553945.952;500;21.73;33181.73
1725553946.003;500;21.73;33181.73
1725553946.052;500;28.62;35173.07
1725553946.103;500;26.73;34624.80
1725553946.153;500;26.73;34624.80
1725553946.202;500;26.73;34624.80
1725553946.253;500;25.80;34357.07
1725553946.304;500;29.00;35282.00
1725553946.355;500;29.00;35282.00
1725553946.405;500;29.00;35282.00
1725553946.454;500;28.50;35137.60
1725553946.505;500;23.91;33811.33
1725553946.555;500;23.91;33811.33
1725553946.605;500;23.91;33811.33
1725553946.655;500;29.00;35282.00
1725553946.705;500;28.47;35129.87
1725553946.755;500;27.69;34904.67
1725553946.805;500;27.69;34904.67
1725553946.855;500;27.69;34904.67
1725553946.905;500;25.63;34307.27
1725553946.955;500;27.49;34845.20
1725553947.005;500;27.49;34845.20
1725553947.055;500;27.49;34845.20
1725553947.105;500;28.63;35176.54
1725553947.154;500;29.00;35282.00
1725553947.205;500;29.00;35282.00
1725553947.256;500;29.00;35282.00
1725553947.306;500;29.00;35282.00
1725553947.356;500;29.00;35282.00
1725553947.406;500;29.00;35282.00
1725553947.457;500;29.00;35282.00
1725553947.507;500;29.00;35282.00
1725553947.556;500;29.00;35282.00
1725553947.606;500;29.00;35282.00
1725553947.657;500;24.43;33962.13
1725553947.707;500;23.92;33813.07
1725553947.757;500;23.92;33813.07
1725553947.807;500;23.92;33813.07
1725553947.858;500;27.23;34772.13
1725553947.908;500;27.35;34805.73
1725553947.958;500;27.35;34805.73
1725553948.008;500;27.35;34805.73
1725553948.059;500;27.86;34952.93
1725553948.109;500;22.17;33307.87
1725553948.158;500;22.46;33390.93
1725553948.208;500;22.46;33390.93
1725553948.258;500;27.08;34727.07
1725553948.308;500;29.00;35282.00
1725553948.359;500;29.00;35282.00
1725553948.408;500;29.00;35282.00
1725553948.458;500;28.42;35115.20
1725553948.509;500;29.00;35282.00
1725553948.558;500;24.89;34094.13
1725553948.609;500;24.89;34094.13
1725553948.658;500;26.44;34541.73
1725553948.709;500;28.95;35266.67
1725553948.758;500;29.00;35282.00
1725553948.808;500;29.00;35282.00
1725553948.859;500;29.00;35282.00
1725553948.909;500;25.87;34376.80
1725553948.960;500;24.00;33837.60
1725553949.009;500;24.00;33837.60
1725553949.059;500;24.00;33837.60
1725553949.110;500;24.36;33942.67
1725553949.159;500;23.83;33788.73
1725553949.209;500;23.83;33788.73
1725553949.260;500;23.83;33788.73
1725553949.311;500;27.10;34734.40
1725553949.359;500;29.00;35282.00
1725553949.409;500;29.00;35282.00
1725553949.460;500;29.00;35282.00
1725553949.510;500;23.43;33673.33
1725553949.560;500;26.99;34701.46
1725553949.611;500;26.99;34701.46
1725553949.661;500;28.29;35077.20
1725553949.711;500;28.66;35184.93
1725553949.761;500;28.66;35184.93
1725553949.811;500;28.66;35184.93
1725553949.862;500;26.71;34620.27
1725553949.913;500;29.00;35282.00
1725553949.962;500;29.00;35282.00
1725553950.012;500;29.00;35282.00
1725553950.062;500;22.51;33407.07
1725553950.112;500;27.09;34729.20
1725553950.163;500;27.09;34729.20
1725553950.213;500;27.09;34729.20
1725553950.262;500;24.83;34078.13
1725553950.313;500;29.00;35282.00
1725553950.363;500;29.00;35282.00
1725553950.413;500;29.00;35282.00
1725553950.462;500;23.55;33708.13
1725553950.513;500;22.06;33275.73
1725553950.563;500;22.06;33275.73
1725553950.613;500;22.06;33275.73
1725553950.664;500;27.64;34890.40
1725553950.714;500;25.30;34212.33
1725553950.763;500;28.72;35202.00
1725553950.813;500;28.72;35202.00
1725553950.864;500;22.02;33266.00
1725553950.914;500;26.92;34679.73
1725553950.964;500;26.92;34679.73
1725553951.014;500;26.92;34679.73
1725553951.064;500;28.49;35135.87
1725553951.114;500;26.15;34459.87
1725553951.164;500;26.15;34459.87
1725553951.214;500;26.15;34459.87
1725553951.264;500;28.65;35180.00
1725553951.314;500;24.89;34094.27
1725553962.512;500;21.70;33172.00
1725553962.562;500;21.64;33155.33
1725553962.762;500;26.96;34693.46
1725553963.062;500;23.67;33741.73
1725553963.112;500;26.15;34459.87
1725553963.162;500;25.10;34156.54
1725553963.213;500;25.10;34156.54
1725553963.262;500;25.10;34156.54
1725553963.312;500;26.93;34683.33
1725553963.363;500;29.00;35282.00
1725553963.412;500;29.00;35282.00
1725553963.464;500;29.00;35282.00
1725553963.514;500;28.22;35056.54
1725553963.564;500;28.22;35056.54
1725553963.614;500;28.22;35056.54
1725553963.665;500;29.00;35282.00
1725553963.715;500;27.70;34905.73
1725553963.764;500;27.70;34905.73
1725553963.816;500;27.70;34905.73
1725553963.865;500;23.49;33688.54
1725553963.915;500;22.82;33496.13
1725553963.965;500;22.82;33496.13
1725553964.015;500;24.85;34082.54
1725553964.066;500;29.00;35282.00
1725553964.116;500;29.00;35282.00
1725553964.165;500;29.00;35282.00
1725553964.215;500;24.23;33904.93
1725553964.265;500;29.00;35282.00
1725553964.315;500;29.00;35282.00
1725553964.365;500;29.00;35282.00
1725553964.415;500;29.00;35282.00
1725553964.465;500;24.44;33963.73
1725553964.516;500;24.44;33963.73
1725553964.566;500;24.44;33963.73
1725553964.616;500;22.54;33416.27
1725553964.665;500;28.76;35212.54
1725553964.716;500;28.76;35212.54
1725553964.765;500;28.76;35212.54
1725553964.815;500;23.52;33698.93
1725553964.866;500;23.52;33698.93
1725553964.916;500;23.52;33698.93
1725553964.966;500;25.89;34383.46
1725553965.016;500;29.00;35282.00
1725553965.066;500;22.67;33453.80
1725553965.116;500;22.67;33453.80
1725553965.166;500;26.16;34460.67
1725553965.216;500;24.40;33953.13
1725553965.266;500;24.40;33953.13
1725553965.317;500;24.40;33953.13
1725553965.366;500;28.10;35023.07
1725553965.416;500;29.00;35282.00
1725553965.466;500;29.00;35282.00
1725553965.517;500;29.00;35282.00
1725553965.567;500;29.00;35282.00
1725553965.617;500;28.52;35144.07
1725553965.667;500;28.52;35144.07
1725553965.717;500;28.52;35144.07
1725553965.767;500;29.00;35282.00
1725553965.818;500;25.64;34310.80
1725553965.869;500;25.64;34310.80
1725553965.918;500;25.64;34310.80
1725553965.968;500;29.00;35282.00
1725553966.018;500;24.13;33873.67
1725553966.068;500;24.13;33873.67
1725553966.119;500;24.13;33873.67
1725553966.169;500;29.00;35282.00
1725553966.219;500;28.47;35128.54
1725553966.269;500;28.47;35128.54
1725553966.319;500;28.47;35128.54
1725553966.369;500;29.00;35282.00
1725553966.420;500;24.36;33940.54
1725553966.469;500;24.15;33879.73
1725553966.520;500;24.15;33879.73
1725553966.569;500;27.51;34852.40
1725553966.670;500;21.74;33184.27
1725553966.720;500;21.74;33184.27
1725553966.771;500;21.74;33184.27
1725553966.822;500;28.85;35240.27
1725553966.872;500;25.78;34350.67
1725553966.922;500;25.78;34350.67
1725553966.972;500;25.78;34350.67
1725553967.022;500;28.63;35174.67
1725553967.072;500;27.63;34885.33
1725553967.123;500;27.63;34885.33
1725553967.173;500;28.62;35171.00
1725553967.223;500;29.00;35282.00
1725553967.273;500;29.00;35282.00
1725553967.323;500;29.00;35282.00
1725553967.373;500;29.00;35282.00
1725553967.423;500;22.50;33405.20
1725553967.474;500;22.50;33405.20
1725553967.523;500;22.50;33405.20
1725553967.574;500;27.53;34858.27
1725553967.624;500;28.55;35152.54
1725553967.674;500;28.55;35152.54
1725553967.725;500;28.55;35152.54
1725553967.774;500;29.00;35282.00
1725553967.824;500;26.33;34510.54
1725553967.874;500;26.33;34510.54
1725553967.924;500;26.33;34510.54
1725553967.974;500;29.00;35282.00
1725553968.030;500;28.68;35188.40
1725553968.077;500;28.93;35260.54
1725553968.127;500;28.93;35260.54
1725553968.177;500;28.93;35260.54
1725553968.227;500;26.09;34440.27
1725554065.242;50;23.44;33676.67
1725554065.292;50;23.44;33676.67
1725554065.342;50;23.44;33676.67
1725554065.391;50;26.26;34491.46
1725554065.441;50;26.26;34491.46
1725554065.492;50;26.26;34491.46
1725554065.542;50;28.73;35203.60
1725554065.591;50;24.50;33980.40
1725554065.641;50;24.50;33980.40
1725554065.691;50;25.09;34152.13
1725554065.741;50;27.48;34841.60
1725554065.792;50;23.96;33825.33
1725554065.842;50;23.96;33825.33
1725554065.891;50;24.14;33878.40
1725554065.942;50;28.19;35048.67
1725554065.992;50;28.19;35048.67
1725554066.042;50;28.19;35048.67
1725554066.092;50;28.44;35120.27
1725554066.142;50;26.46;34549.27
1725554066.193;50;29.00;35282.00
1725554066.243;50;29.00;35282.00
1725554066.293;50;27.07;34724.93
1725554066.343;50;23.89;33805.87
1725554066.393;50;24.13;33874.00
1725554066.445;50;24.13;33874.00
1725554066.494;50;24.13;33874.00
1725554066.545;50;28.40;35109.20
1725554066.595;50;26.34;34514.00
1725554066.646;50;26.34;34514.00
1725554066.695;50;25.73;34335.80
1725554066.746;50;28.52;35142.80
1725554066.795;50;27.12;34739.33
1725554066.846;50;27.12;34739.33
1725554066.896;50;27.12;34739.33
1725554066.946;50;28.25;35064.67
1725554066.996;50;25.46;34259.87
1725554067.046;50;25.46;34259.87
1725554067.096;50;25.46;34259.87
1725554067.146;50;28.78;35219.07
1725554067.197;50;28.24;35061.33
1725554067.247;50;28.24;35061.33
1725554067.297;50;28.24;35061.33
1725554067.347;50;26.04;34427.27
1725554067.397;50;28.08;35015.33
1725554067.447;50;28.08;35015.33
1725554067.497;50;28.08;35015.33
1725554067.547;50;26.61;34590.27
1725554067.598;50;27.02;34709.93
1725554067.647;50;27.02;34709.93
1725554067.698;50;27.02;34709.93
1725554067.747;50;27.56;34866.27
1725554067.797;50;28.45;35124.00
1725554067.848;50;28.45;35124.00
1725554067.898;50;28.19;35048.80
1725554067.949;50;24.32;33928.40
1725554067.999;50;26.07;34435.20
1725554068.049;50;26.07;34435.20
1725554068.099;50;27.94;34974.54
1725554068.149;50;27.39;34817.87
1725554068.199;50;28.88;35248.27
1725554068.250;50;28.88;35248.27
1725554068.300;50;28.88;35248.27
1725554068.350;50;28.23;35059.33
1725554068.402;50;27.84;34948.27
1725554068.452;50;27.84;34948.27
1725554068.502;50;27.84;34948.27
1725554068.551;50;26.76;34634.67
1725554068.602;50;27.35;34806.00
1725554068.651;50;27.35;34806.00
1725554068.701;50;27.35;34806.00
1725554068.752;50;28.33;35089.73
1725554068.802;50;24.87;34088.20
1725554068.853;50;24.87;34088.20
1725554068.902;50;24.87;34088.20
1725554068.953;50;26.89;34673.20
1725554069.002;50;28.67;35188.27
1725554069.052;50;28.67;35188.27
1725554069.103;50;29.00;35282.00
1725554069.153;50;27.67;34897.60
1725554069.203;50;25.08;34150.80
1725554069.253;50;25.08;34150.80
1725554069.302;50;26.91;34679.46
1725554069.353;50;26.41;34532.67
1725554069.403;50;27.30;34791.60
1725554069.453;50;27.30;34791.60
1725554069.503;50;27.30;34791.60
1725554069.554;50;27.25;34775.46
1725554069.603;50;28.30;35080.54
1725554069.653;50;28.30;35080.54
1725554069.704;50;28.30;35080.54
1725554069.754;50;23.63;33730.13
1725554069.804;50;25.18;34177.73
1725554069.854;50;25.18;34177.73
1725554069.904;50;26.25;34488.67
1725554069.954;50;28.25;35064.13
1725554070.005;50;28.25;35064.13
1725554070.054;50;28.25;35064.13
1725554070.104;50;25.70;34329.60
1725554070.154;50;27.58;34873.20
1725554070.203;50;28.53;35147.07
1725554070.254;50;28.53;35147.07
1725554070.304;50;28.90;35253.60
1725554070.354;50;28.16;35040.00
1725554070.404;50;28.50;35137.87
1725554070.454;50;28.50;35137.87
1725554070.504;50;28.50;35137.87
1725554070.554;50;28.35;35095.60
1725554070.604;50;27.87;34955.87
1725554082.475;50;21.67;33164.27
1725554082.526;50;21.67;33164.27
1725554082.576;50;21.67;33164.27
1725554082.625;50;27.29;34787.60
1725554082.676;50;27.29;34787.60
1725554082.726;50;27.29;34787.60
1725554082.775;50;29.00;35282.00
1725554082.826;50;28.61;35170.13
1725554082.877;50;28.61;35170.13
1725554082.927;50;28.61;35170.13
1725554082.977;50;29.00;35282.00
1725554083.027;50;27.42;34826.27
1725554083.077;50;27.42;34826.27
1725554083.127;50;27.42;34826.27
1725554083.177;50;28.91;35256.80
1725554083.226;50;28.65;35181.20
1725554083.277;50;28.65;35181.20
1725554083.327;50;27.74;34916.80
1725554083.377;50;24.91;34101.60
1725554083.427;50;27.68;34900.80
1725554083.477;50;27.68;34900.80
1725554083.527;50;27.68;34900.80
1725554083.577;50;24.26;33912.27
1725554083.627;50;23.31;33638.13
1725554083.677;50;23.31;33638.13
1725554083.727;50;23.31;33638.13
1725554083.777;50;24.24;33905.46
1725554083.827;50;27.44;34830.00
1725554083.878;50;27.44;34830.00
1725554083.927;50;27.44;34830.00
1725554083.978;50;28.52;35142.67
1725554084.027;50;27.67;34897.60
1725554084.078;50;27.67;34897.60
1725554084.128;50;27.67;34897.60
1725554084.178;50;25.62;34305.07
1725554084.228;50;27.06;34722.54
1725554084.278;50;27.06;34722.54
1725554084.329;50;27.06;34722.54
1725554084.379;50;27.81;34938.00
1725554084.428;50;27.55;34864.40
1725554084.479;50;27.55;34864.40
1725554084.529;50;27.55;34864.40
1725554084.579;50;25.44;34253.46
1725554084.628;50;23.28;33629.87
1725554084.678;50;23.28;33629.87
1725554084.728;50;23.28;33629.87
1725554084.779;50;28.59;35163.46
1725554084.828;50;27.94;34976.00
1725554084.878;50;27.94;34976.00
1725554084.928;50;28.83;35232.13
1725554084.979;50;28.67;35187.20
1725554085.029;50;28.67;35187.20
1725554085.079;50;28.67;35187.20
1725554085.128;50;27.22;34768.27
1725554085.178;50;27.07;34724.80
1725554085.230;50;27.07;34724.80
1725554085.280;50;27.07;34724.80
1725554085.329;50;24.20;33895.07
1725554085.380;50;26.54;34572.00
1725554085.430;50;26.54;34572.00
1725554085.481;50;26.54;34572.00
1725554085.530;50;28.24;35063.73
1725554085.581;50;28.47;35128.67
1725554085.631;50;28.47;35128.67
1725554085.681;50;28.47;35128.67
1725554085.733;50;29.00;35282.00
1725554085.782;50;26.85;34660.33
1725554085.833;50;26.85;34660.33
1725554085.883;50;26.85;34660.33
1725554085.933;50;28.67;35187.33
1725554085.982;50;25.45;34255.20
1725554086.034;50;25.45;34255.20
1725554086.083;50;25.45;34255.20
1725554086.134;50;28.16;35038.13
1725554086.183;50;27.72;34911.46
1725554086.233;50;27.72;34911.46
1725554086.284;50;27.72;34911.46
1725554086.334;50;28.51;35141.33
1725554086.384;50;24.35;33939.00
1725554086.434;50;24.35;33939.00
1725554086.484;50;24.35;33939.00
1725554086.534;50;29.00;35282.00
1725554086.585;50;27.83;34942.80
1725554086.635;50;27.83;34942.80
1725554086.685;50;27.83;34942.80
1725554086.736;50;29.00;35282.00
1725554086.785;50;28.80;35224.13
1725554086.836;50;28.80;35224.13
1725554086.885;50;28.80;35224.13
1725554086.935;50;28.47;35130.00
1725554086.985;50;24.24;33906.20
1725554087.035;50;24.24;33906.20
1725554087.085;50;24.24;33906.20
1725554087.135;50;26.85;34660.13
1725554087.185;50;27.91;34966.80
1725554087.235;50;27.91;34966.80
1725554087.285;50;27.91;34966.80
1725554087.335;50;28.28;35074.27
1725554087.386;50;26.21;34475.07
1725554087.435;50;26.21;34475.07
1725554087.487;50;26.21;34475.07
1725554087.537;50;28.80;35224.93
1725554099.437;50;23.42;33670.54
1725554099.486;50;22.26;33333.20
1725554099.536;50;22.26;33333.20
1725554099.587;50;22.26;33333.20
1725554099.636;50;27.32;34797.73
1725554099.687;50;27.97;34984.07
1725554099.736;50;27.97;34984.07
1725554099.787;50;27.97;34984.07
1725554099.837;50;25.62;34305.87
1725554099.887;50;28.56;35155.73
1725554099.938;50;28.56;35155.73
1725554099.988;50;28.56;35155.73
1725554100.038;50;28.56;35156.27
1725554100.088;50;28.56;35156.27
1725554100.138;50;28.56;35156.27
1725554100.188;50;22.96;33535.73
1725554100.239;50;26.10;34444.54
1725554100.289;50;26.10;34444.54
1725554100.339;50;26.10;34444.54
1725554100.389;50;28.58;35160.27
1725554100.438;50;27.08;34727.60
1725554100.489;50;27.08;34727.60
1725554100.539;50;23.69;33747.60
1725554100.590;50;28.91;35256.80
1725554100.639;50;28.91;35256.80
1725554100.690;50;28.91;35256.80
1725554100.740;50;28.59;35162.40
1725554100.791;50;28.41;35111.20
1725554100.841;50;28.41;35111.20
1725554100.891;50;28.41;35111.20
1725554100.941;50;27.83;34943.87
1725554100.991;50;26.55;34574.40
1725554101.041;50;26.59;34586.00
1725554101.091;50;26.59;34586.00
1725554101.142;50;28.07;35014.54
1725554101.193;50;27.21;34766.27
1725554101.242;50;27.21;34766.27
1725554101.293;50;27.21;34766.27
1725554101.344;50;29.00;35282.00
1725554101.394;50;28.18;35044.93
1725554101.443;50;28.18;35044.93
1725554101.494;50;28.18;35044.93
1725554101.543;50;28.03;35002.13
1725554101.593;50;28.03;35002.13
1725554101.643;50;28.03;35002.13
1725554101.693;50;27.89;34961.07
1725554101.744;50;27.77;34926.40
1725554101.794;50;27.77;34926.40
1725554101.844;50;27.77;34926.40
1725554101.894;50;28.98;35275.73
1725554101.944;50;24.84;34080.27
1725554101.995;50;24.84;34080.27
1725554102.044;50;26.62;34595.46
1725554102.095;50;28.65;35182.40
1725554102.144;50;26.80;34647.73
1725554102.195;50;26.80;34647.73
1725554102.245;50;26.80;34647.73
1725554102.296;50;28.19;35047.73
1725554102.345;50;28.67;35186.40
1725554102.396;50;28.67;35186.40
1725554102.446;50;28.67;35186.40
1725554102.495;50;29.00;35282.00
1725554102.545;50;25.10;34156.54
1725554102.595;50;25.10;34156.54
1725554102.646;50;25.10;34156.54
1725554102.696;50;28.71;35197.60
1725554102.746;50;28.93;35260.80
1725554102.796;50;28.93;35260.80
1725554102.846;50;28.93;35260.80
1725554102.896;50;26.62;34593.87
1725554102.946;50;28.43;35116.27
1725554102.997;50;28.43;35116.27
1725554103.047;50;27.98;34988.67
1725554103.097;50;28.44;35120.54
1725554103.147;50;28.44;35120.54
1725554103.197;50;28.44;35120.54
1725554103.247;50;23.81;33782.00
1725554103.298;50;27.59;34873.80
1725554103.348;50;27.59;34873.80
1725554103.397;50;27.59;34873.80
1725554103.448;50;29.00;35282.00
1725554103.497;50;27.98;34986.27
1725554103.548;50;27.98;34986.27
1725554103.598;50;27.98;34986.27
1725554103.647;50;29.00;35282.00
1725554103.698;50;27.41;34821.73
1725554103.748;50;26.65;34602.13
1725554103.798;50;26.65;34602.13
1725554103.848;50;26.45;34544.40
1725554103.906;50;26.10;34443.07
1725554103.948;50;27.74;34916.67
1725554103.999;50;27.74;34916.67
1725554104.049;50;27.74;34916.67
1725554104.099;50;27.89;34961.07
1725554104.149;50;28.59;35164.27
1725554104.200;50;28.59;35164.27
1725554104.250;50;28.59;35164.27
1725554104.301;50;27.55;34862.93
1725554104.350;50;29.00;35282.00
1725554104.401;50;29.00;35282.00
1725554104.450;50;29.00;35282.00
1725554104.501;50;25.09;34152.27
1725554255.699;101;20.00;33816.54
1725554255.749;101;20.00;33816.54
1725554255.798;101;20.00;33816.54
1725554255.848;87;20.00;34096.54
1725554255.898;87;20.00;34096.54
1725554255.949;87;20.00;34096.54
1725554255.999;32;20.00;35206.80
1725554256.049;29;20.00;35276.80
1725554256.099;29;20.00;35276.80
1725554256.149;29;20.00;35276.80
1725554256.206;52;20.00;34813.33
1725554256.248;55;20.00;34752.00
1725554256.298;55;20.00;34744.00
1725554256.348;55;20.00;34744.00
1725554256.398;37;20.00;35111.46
1725554256.449;43;20.00;34996.67
1725554256.500;72;20.00;34407.73
1725554256.549;72;20.00;34407.73
1725554256.599;72;20.00;34407.73
1725554256.650;66;20.00;34531.87
1725554256.700;58;20.00;34685.73
1725554256.749;58;20.00;34685.73
1725554256.799;42;20.00;35011.07
1725554256.849;38;20.00;35094.67
1725554256.900;44;20.00;34973.33
1725554256.950;44;20.00;34973.33
1725554257.000;44;20.00;34973.33
1725554257.050;41;20.00;35032.00
1725554257.100;91;20.00;34008.40
1725554257.150;91;20.00;34008.40
1725554257.200;91;20.00;34008.40
1725554257.249;64;20.00;34561.60
1725554257.300;75;20.00;34346.60
1725554257.349;75;20.00;34346.60
1725554257.400;75;20.00;34346.60
1725554257.450;29;20.00;35282.00
1725554257.500;98;20.00;33873.07
1725554257.549;98;20.00;33873.07
1725554257.599;98;20.00;33873.07
1725554257.651;98;20.00;33873.07
1725554257.701;46;20.00;34937.33
1725554257.750;64;20.00;34567.87
1725554257.801;64;20.00;34567.87
1725554257.850;64;20.00;34567.87
1725554257.901;42;20.00;35013.07
1725554257.951;57;20.00;34698.27
1725554258.001;57;20.00;34698.27
1725554258.051;57;20.00;34698.27
1725554258.101;50;20.00;34854.00
1725554258.152;66;20.00;34522.67
1725554258.203;66;20.00;34522.67
1725554258.253;66;20.00;34522.67
1725554258.302;37;20.00;35106.40
1725554258.353;45;20.00;34942.00
1725554258.404;45;20.00;34942.00
1725554258.454;45;20.00;34942.00
1725554258.504;80;20.00;34231.46
1725554258.555;52;20.00;34810.67
1725554258.606;52;20.00;34810.67
1725554258.657;52;20.00;34810.67
1725554258.707;33;20.00;35190.00
1725554258.757;80;20.00;34245.93
1725554258.807;80;20.00;34245.93
1725554258.857;80;20.00;34245.93
1725554258.907;52;20.00;34812.27
1725554258.957;34;20.00;35164.54
1725554259.008;36;20.00;35132.40
1725554259.058;36;20.00;35132.40
1725554259.108;40;20.00;35044.13
1725554259.158;56;20.00;34726.00
1725554259.208;47;20.00;34907.33
1725554259.258;47;20.00;34907.33
1725554259.308;47;20.00;34907.33
1725554259.358;38;20.00;35083.46
1725554259.408;45;20.00;34948.40
1725554259.458;45;20.00;34948.40
1725554259.508;45;20.00;34948.40
1725554259.558;49;20.00;34866.80
1725554259.608;49;20.00;34866.80
1725554259.658;49;20.00;34866.80
1725554259.708;33;20.00;35185.87
1725554259.758;32;20.00;35219.46
1725554259.808;32;20.00;35219.46
1725554259.858;32;20.00;35219.46
1725554259.908;87;20.00;34105.33
1725554259.958;54;20.00;34762.13
1725554260.008;54;20.00;34762.13
1725554260.058;54;20.00;34762.13
1725554260.108;78;20.00;34280.00
1725554260.158;36;20.00;35129.73
1725554260.208;36;20.00;35129.73
1725554260.258;36;20.00;35129.73
1725554260.308;45;20.00;34946.13
1725554260.358;50;20.00;34837.00
1725554260.409;50;20.00;34837.00
1725554260.458;50;20.00;34837.00
1725554260.509;42;20.00;35016.54
1725554260.559;40;20.00;35039.60
1725554260.609;40;20.00;35039.60
1725554260.659;40;20.00;35039.60
1725554260.709;47;20.00;34917.07
1725554260.759;35;20.00;35159.20
1725554260.809;35;20.00;35159.20
1725554260.858;35;20.00;35159.20
1725554260.908;57;20.00;34710.93
1725554260.959;38;20.00;35087.54
1725554261.008;38;20.00;35087.54
1725554261.058;38;20.00;35087.54
1725554261.109;64;20.00;34552.33
1725554273.052;127;20.00;33290.54
1725554273.302;35;20.00;35158.67
1725554273.352;116;20.00;33507.93
1725554273.403;116;20.00;33507.93
1725554273.453;116;20.00;33507.93
1725554273.502;126;20.00;33313.73
1725554273.552;64;20.00;34569.73
1725554273.602;64;20.00;34569.73
1725554273.653;64;20.00;34569.73
1725554273.704;68;20.00;34480.54
1725554273.754;50;20.00;34836.54
1725554273.803;47;20.00;34910.40
1725554273.853;47;20.00;34910.40
1725554273.904;29;20.00;35282.00
1725554273.953;34;20.00;35178.93
1725554274.003;34;20.00;35178.93
1725554274.054;34;20.00;35178.93
1725554274.103;35;20.00;35140.67
1725554274.153;54;20.00;34756.27
1725554274.204;43;20.00;34998.13
1725554274.254;43;20.00;34998.13
1725554274.304;42;20.00;35014.54
1725554274.354;43;20.00;34984.93
1725554274.405;73;20.00;34379.46
1725554274.455;73;20.00;34379.46
1725554274.506;73;20.00;34379.46
1725554274.556;35;20.00;35143.20
1725554274.606;63;20.00;34584.40
1725554274.656;63;20.00;34584.40
1725554274.706;63;20.00;34584.40
1725554274.757;43;20.00;34987.07
1725554274.807;84;20.00;34154.80
1725554274.858;84;20.00;34154.80
1725554274.908;84;20.00;34154.80
1725554274.958;35;20.00;35155.73
1725554275.008;43;20.00;34989.33
1725554275.058;43;20.00;34989.33
1725554275.109;43;20.00;34989.33
1725554275.158;63;20.00;34580.54
1725554275.208;36;20.00;35128.54
1725554275.258;36;20.00;35128.54
1725554275.308;36;20.00;35128.54
1725554275.358;66;20.00;34516.80
1725554275.409;40;20.00;35044.80
1725554275.459;40;20.00;35044.80
1725554275.508;40;20.00;35044.80
1725554275.559;50;20.00;34845.20
1725554275.609;37;20.00;35114.54
1725554275.659;37;20.00;35114.54
1725554275.709;37;20.00;35114.54
1725554275.758;36;20.00;35139.54
1725554275.808;52;20.00;34809.73
1725554275.859;52;20.00;34809.73
1725554275.909;52;20.00;34809.73
1725554275.959;42;20.00;35011.73
1725554276.009;44;20.00;34966.67
1725554276.059;44;20.00;34966.67
1725554276.110;44;20.00;34966.67
1725554276.159;78;20.00;34280.73
1725554276.213;69;20.00;34459.60
1725554276.259;69;20.00;34459.60
1725554276.310;69;20.00;34459.60
1725554276.359;67;20.00;34497.33
1725554276.409;57;20.00;34708.67
1725554276.459;57;20.00;34708.67
1725554276.509;57;20.00;34708.67
1725554276.559;69;20.00;34461.40
1725554276.610;40;20.00;35053.73
1725554276.660;40;20.00;35053.73
1725554276.710;40;20.00;35040.13
1725554276.760;34;20.00;35170.13
1725554276.810;47;20.00;34903.33
1725554276.860;47;20.00;34903.33
1725554276.910;47;20.00;34903.33
1725554276.961;47;20.00;34912.40
1725554277.011;49;20.00;34860.54
1725554277.060;49;20.00;34860.54
1725554277.111;49;20.00;34860.54
1725554277.161;73;20.00;34388.00
1725554277.211;80;20.00;34244.13
1725554277.261;80;20.00;34244.13
1725554277.311;80;20.00;34244.13
1725554277.361;80;20.00;34244.13
1725554277.412;45;20.00;34948.54
1725554277.462;41;20.00;35020.40
1725554277.512;41;20.00;35020.40
1725554277.561;41;20.00;35020.40
1725554277.612;87;20.00;34101.46
1725554277.667;85;20.00;34128.80
1725554277.715;32;20.00;35217.33
1725554277.764;32;20.00;35217.33
1725554277.816;37;20.00;35119.07
1725554277.866;50;20.00;34854.40
1725554277.916;41;20.00;35020.54
1725554277.966;41;20.00;35020.54
1725554278.016;41;20.00;35020.54
1725554278.066;39;20.00;35077.20
1725554278.117;54;20.00;34768.67
1725554278.167;54;20.00;34768.67
1725554278.217;54;20.00;34768.67
1725554278.267;40;20.00;35054.27
1725554278.317;47;20.00;34898.93
1725554278.367;47;20.00;34898.93
1725554278.417;86;20.00;34110.80
1725554278.467;71;20.00;34417.87
1725554278.517;48;20.00;34880.40
1725554278.568;48;20.00;34880.40
1725554278.618;33;20.00;35198.93
1725554278.668;88;20.00;34082.80
1725554291.138;106;20.00;33703.46
1725554291.188;106;20.00;33703.46
1725554291.238;106;20.00;33703.46
1725554291.288;82;20.00;34198.00
1725554291.338;70;20.00;34432.80
1725554291.388;70;20.00;34432.80
1725554291.438;70;20.00;34432.80
1725554291.488;97;20.00;33896.67
1725554291.538;33;20.00;35185.87
1725554291.588;33;20.00;35185.87
1725554291.638;33;20.00;35185.87
1725554291.688;35;20.00;35146.54
1725554291.739;81;20.00;34221.87
1725554291.788;81;20.00;34221.87
1725554291.839;81;20.00;34221.87
1725554291.888;78;20.00;34282.54
1725554291.938;91;20.00;34006.46
1725554291.989;91;20.00;34006.46
1725554292.039;64;20.00;34563.13
1725554292.089;49;20.00;34864.80
1725554292.139;79;20.00;34261.07
1725554292.189;79;20.00;34261.07
1725554292.239;69;20.00;34453.07
1725554292.289;48;20.00;34886.00
1725554292.339;38;20.00;35080.60
1725554292.389;38;20.00;35080.60
1725554292.439;58;20.00;34679.00
1725554292.489;38;20.00;35095.87
1725554292.539;55;20.00;34751.46
1725554292.589;55;20.00;34751.46
1725554292.639;55;20.00;34751.46
1725554292.689;52;20.00;34813.07
1725554292.740;42;20.00;35001.46
1725554292.790;42;20.00;35001.46
1725554292.840;42;20.00;35001.46
1725554292.890;57;20.00;34712.93
1725554292.940;35;20.00;35157.33
1725554292.990;35;20.00;35157.33
1725554293.042;35;20.00;35157.33
1725554293.091;41;20.00;35034.93
1725554293.141;59;20.00;34670.40
1725554293.192;59;20.00;34670.40
1725554293.242;89;20.00;34049.07
1725554293.291;58;20.00;34691.54
1725554293.341;61;20.00;34626.67
1725554293.391;61;20.00;34626.67
1725554293.441;53;20.00;34790.54
1725554293.491;64;20.00;34557.60
1725554293.541;57;20.00;34695.60
1725554293.592;57;20.00;34695.60
1725554293.641;43;20.00;34982.13
1725554293.691;43;20.00;34982.13
1725554293.741;56;20.00;34714.93
1725554293.791;56;20.00;34714.93
1725554293.841;56;20.00;34714.93
1725554293.891;56;20.00;34714.93
1725554293.943;43;20.00;34989.87
1725554293.992;70;20.00;34442.93
1725554294.042;70;20.00;34442.93
1725554294.092;70;20.00;34442.93
1725554294.143;44;20.00;34960.27
1725554294.192;58;20.00;34685.33
1725554294.244;58;20.00;34685.33
1725554294.294;58;20.00;34685.33
1725554294.343;41;20.00;35035.27
1725554294.394;68;20.00;34471.80
1725554294.443;68;20.00;34471.80
1725554294.493;68;20.00;34471.80
1725554294.543;37;20.00;35115.33
1725554294.595;40;20.00;35050.27
1725554294.645;40;20.00;35050.27
1725554294.694;40;20.00;35050.27
1725554294.746;74;20.00;34362.13
1725554294.796;41;20.00;35021.80
1725554294.845;82;20.00;34200.54
1725554294.896;82;20.00;34200.54
1725554294.945;82;20.00;34200.54
1725554294.996;39;20.00;35060.93
1725554295.046;34;20.00;35179.46
1725554295.097;34;20.00;35179.46
1725554295.147;34;20.00;35179.46
1725554295.197;34;20.00;35179.46
1725554295.246;69;20.00;34454.33
1725554295.296;46;20.00;34920.20
1725554295.347;46;20.00;34920.20
1725554295.396;46;20.00;34920.20
1725554295.447;35;20.00;35145.33
1725554295.497;39;20.00;35070.80
1725554295.547;58;20.00;34677.60
1725554295.597;58;20.00;34677.60
1725554295.648;49;20.00;34875.87
1725554295.698;42;20.00;35012.27
1725554295.748;42;20.00;35012.27
1725554295.799;42;20.00;35012.27
1725554295.848;39;20.00;35075.20
1725554295.898;36;20.00;35120.40
1725554295.948;44;20.00;34962.54
1725554295.999;44;20.00;34962.54
1725554296.048;44;20.00;34962.54
1725554296.098;34;20.00;35170.93
1725554296.149;70;20.00;34444.67
1725554296.198;70;20.00;34444.67
1725554296.248;70;20.00;34444.67
1725554296.298;37;20.00;35111.07
1725554296.348;44;20.00;34974.67
1725554296.398;44;20.00;34974.67
1725554296.448;44;20.00;34974.67
1725554296.498;29;20.00;35263.20
1725554296.548;43;20.00;34983.20
