UnixTimestamp;Microseconds;MilliAmpere;BaseValue
1739973482.510;124;30.00;34975.33
1739973482.557;124;30.00;34975.33
1739973482.607;156;30.00;40204.00
1739973482.657;156;30.00;40204.00
1739973482.707;135;30.00;36822.54
1739973482.757;135;30.00;36822.54
1739973482.807;135;30.00;36822.54
1739973482.858;147;30.00;38709.07
1739973482.907;147;30.00;38709.07
1739973482.957;133;30.00;36407.60
1739973483.007;158;30.00;40497.46
1739973483.057;158;30.00;40497.46
1739973483.107;139;30.00;37371.60
1739973483.157;139;30.00;37371.60
1739973483.207;130;30.00;35912.13
1739973483.257;130;30.00;35912.13
1739973483.307;130;30.00;35912.13
1739973483.357;129;30.00;35740.54
1739973483.407;129;30.00;35740.54
1739973483.457;144;30.00;38267.07
1739973483.507;152;30.00;39652.27
1739973483.557;152;30.00;39652.27
1739973483.607;125;30.00;35188.40
1739973483.657;125;30.00;35188.40
1739973483.707;148;30.00;38877.87
1739973483.758;148;30.00;38877.87
1739973483.807;155;30.00;40023.33
1739973483.857;126;30.00;35308.33
1739973483.907;126;30.00;35308.33
1739973484.057;121;30.00;34450.07
1739973484.107;121;30.00;34450.07
1739973484.157;130;30.00;36053.87
1739973484.207;141;30.00;37764.80
1739973484.257;141;30.00;37764.80
1739973484.307;146;30.00;38560.40
1739973484.357;146;30.00;38560.40
1739973484.507;133;30.00;36459.46
1739973484.557;133;30.00;36459.46
1739973484.607;127;30.00;35517.07
1739973484.657;127;30.00;35517.07
1739973484.707;134;30.00;36550.27
1739973484.758;158;30.00;40636.27
1739973484.807;158;30.00;40636.27
1739973484.857;155;30.00;40103.33
1739973484.907;159;30.00;40736.13
1739973484.957;159;30.00;40736.13
1739973485.008;138;30.00;37325.20
1739973485.057;138;30.00;37325.20
1739973485.108;138;30.00;37325.20
1739973485.158;127;30.00;35545.33
1739973485.207;145;30.00;38503.46
1739973485.257;145;30.00;38503.46
1739973485.307;154;30.00;39970.80
1739973485.357;154;30.00;39970.80
1739973485.407;158;30.00;40491.60
1739973485.457;158;30.00;40491.60
1739973485.507;148;30.00;38936.54
1739973485.557;153;30.00;39789.20
1739973485.607;153;30.00;39789.20
1739973485.657;134;30.00;36679.20
1739973485.707;134;30.00;36679.20
1739973485.757;144;30.00;38218.40
1739973485.807;131;30.00;36103.87
1739973485.857;131;30.00;36103.87
1739973485.907;155;30.00;40127.20
1739973485.957;155;30.00;40127.20
1739973486.007;151;30.00;39441.60
1739973486.057;151;30.00;39441.60
1739973486.107;152;30.00;39524.54
1739973486.157;124;30.00;34937.46
1739973486.207;124;30.00;34937.46
1739973486.257;135;30.00;36838.00
1739973486.307;135;30.00;36838.00
1739973486.357;154;30.00;39964.40
1739973486.407;143;30.00;38185.00
1739973486.457;143;30.00;38185.00
1739973486.507;156;30.00;40287.33
1739973486.557;156;30.00;40287.33
1739973486.607;123;30.00;34785.87
1739973486.657;123;30.00;34785.87
1739973486.707;123;30.00;34751.33
1739973486.757;123;30.00;34751.33
1739973486.807;157;30.00;40452.40
1739973486.858;157;30.00;40452.40
1739973486.909;148;30.00;38901.33
1739973486.959;148;30.00;38901.33
1739973487.009;128;30.00;35603.87
1739973487.059;152;30.00;39638.54
1739973487.109;152;30.00;39638.54
1739973487.160;127;30.00;35557.20
1739973487.209;127;30.00;35557.20
1739973487.259;134;30.00;36706.54
1739973487.309;134;30.00;36706.54
1739973487.359;141;30.00;37827.60
1739973487.410;135;30.00;36804.00
1739973487.460;135;30.00;36804.00
1739973487.509;136;30.00;36968.27
1739973487.559;136;30.00;36968.27
1739973496.196;120;30.00;34402.93
1739973496.246;120;30.00;34402.93
1739973496.296;152;30.00;39562.80
1739973496.346;152;30.00;39562.80
1739973496.396;157;30.00;40407.33
1739973496.446;157;30.00;40407.33
1739973496.496;157;30.00;40407.33
1739973496.546;124;30.00;35023.46
1739973496.596;124;30.00;35023.46
1739973496.646;122;30.00;34609.33
1739973496.696;126;30.00;35369.60
1739973496.746;126;30.00;35369.60
1739973496.796;149;30.00;39110.07
1739973496.846;149;30.00;39110.07
1739973496.896;157;30.00;40457.07
1739973496.946;157;30.00;40457.07
1739973496.995;156;30.00;40264.93
1739973497.046;156;30.00;40264.93
1739973497.096;141;30.00;37847.73
1739973497.147;141;30.00;37847.73
1739973497.196;142;30.00;38021.73
1739973497.247;142;30.00;38021.73
1739973497.296;150;30.00;39187.80
1739973497.346;147;30.00;38792.80
1739973497.397;147;30.00;38792.80
1739973497.447;158;30.00;40549.54
1739973497.497;158;30.00;40549.54
1739973497.547;152;30.00;39576.40
1739973497.597;152;30.00;39576.40
1739973497.647;152;30.00;39576.40
1739973497.697;149;30.00;39051.20
1739973497.747;149;30.00;39051.20
1739973497.797;153;30.00;39827.60
1739973497.847;153;30.00;39827.60
1739973497.897;128;30.00;35672.13
1739973497.947;128;30.00;35672.13
1739973497.996;123;30.00;34818.13
1739973498.047;123;30.00;34818.13
1739973498.097;152;30.00;39630.40
1739973498.147;136;30.00;37021.73
1739973498.197;136;30.00;37021.73
1739973498.347;121;30.00;34455.27
1739973498.397;121;30.00;34455.27
1739973498.447;137;30.00;37160.80
1739973498.497;137;30.00;37160.80
1739973498.547;137;30.00;37072.00
1739973498.597;126;30.00;35293.87
1739973498.647;126;30.00;35293.87
1739973498.697;155;30.00;40087.87
1739973498.748;155;30.00;40087.87
1739973498.797;154;30.00;39867.60
1739973498.848;154;30.00;39867.60
1739973498.898;150;30.00;39246.40
1739973498.947;150;30.00;39246.40
1739973498.998;150;30.00;39246.40
1739973499.048;131;30.00;36061.20
1739973499.099;131;30.00;36061.20
1739973499.149;139;30.00;37398.80
1739973499.199;139;30.00;37398.80
1739973499.249;140;30.00;37658.40
1739973499.299;139;30.00;37500.27
1739973499.350;145;30.00;38396.27
1739973499.399;131;30.00;36214.54
1739973499.450;131;30.00;36214.54
1739973499.499;122;30.00;34660.40
1739973499.550;122;30.00;34660.40
1739973499.599;157;30.00;40430.54
1739973499.650;157;30.00;40430.54
1739973499.699;131;30.00;36105.73
1739973499.750;131;30.00;36105.73
1739973499.799;142;30.00;37871.33
1739973499.850;142;30.00;37871.33
1739973499.900;149;30.00;39132.80
1739973499.950;147;30.00;38806.40
1739973499.999;147;30.00;38806.40
1739973500.050;150;30.00;39269.87
1739973500.100;150;30.00;39269.87
1739973500.150;155;30.00;40136.54
1739973500.200;158;30.00;40495.46
1739973500.250;158;30.00;40495.46
1739973508.494;120;30.00;34386.80
1739973508.544;120;30.00;34386.80
1739973508.594;156;30.00;40227.46
1739973508.644;156;30.00;40227.46
1739973508.694;140;30.00;37572.13
1739973508.744;140;30.00;37572.13
1739973508.794;137;30.00;37175.87
1739973509.045;137;30.00;37109.93
1739973509.094;124;30.00;35012.13
1739973509.145;124;30.00;35012.13
1739973509.195;147;30.00;38744.00
1739973509.246;147;30.00;38744.00
1739973509.296;155;30.00;40006.13
1739973509.346;155;30.00;40006.13
1739973509.396;154;30.00;39975.07
1739973509.446;154;30.00;39975.07
1739973509.495;130;30.00;35942.67
1739973509.546;130;30.00;35942.67
1739973509.696;124;30.00;35015.87
1739973509.746;121;30.00;34425.87
1739973509.795;121;30.00;34425.87
1739973509.845;122;30.00;34618.00
1739973509.896;122;30.00;34618.00
1739973509.947;141;30.00;37786.93
1739973509.996;125;30.00;35220.00
1739973510.047;125;30.00;35220.00
1739973510.097;122;30.00;34654.67
1739973510.148;122;30.00;34654.67
1739973510.198;157;30.00;40418.54
1739973510.248;157;30.00;40418.54
1739973510.298;135;30.00;36842.67
1739973510.348;135;30.00;36842.67
1739973510.398;130;30.00;35893.60
1739973510.448;130;30.00;35893.60
1739973510.499;131;30.00;36197.87
1739973510.549;129;30.00;35882.27
1739973510.599;129;30.00;35882.27
1739973510.649;151;30.00;39382.00
1739973510.698;151;30.00;39382.00
1739973510.749;141;30.00;37749.60
1739973510.799;141;30.00;37749.60
1739973510.849;141;30.00;37749.60
1739973510.899;123;30.00;34835.73
1739973510.949;123;30.00;34835.73
1739973510.999;135;30.00;36812.27
1739973511.049;135;30.00;36812.27
1739973511.099;127;30.00;35413.07
1739973511.149;127;30.00;35413.07
1739973511.199;152;30.00;39597.73
1739973511.249;152;30.00;39597.73
1739973511.550;129;30.00;35850.40
1739973511.599;129;30.00;35850.40
1739973511.650;129;30.00;35768.00
1739973511.700;139;30.00;37522.27
1739973511.750;139;30.00;37522.27
1739973511.801;141;30.00;37742.67
1739973511.850;141;30.00;37742.67
1739973512.000;156;30.00;40303.33
1739973512.150;139;30.00;37398.13
1739973512.200;139;30.00;37398.13
1739973512.350;151;30.00;39431.73
1739973512.401;151;30.00;39431.73
1739973512.450;125;30.00;35074.93
1739973512.501;153;30.00;39736.27
1739973512.551;153;30.00;39736.27
1739973512.600;128;30.00;35723.73
1739973512.650;128;30.00;35723.73
1739973512.700;143;30.00;38081.54
1739973512.750;143;30.00;38081.54
1739973696.367;300;23.09;34634.93
1739973696.417;300;23.09;34634.93
1739973696.468;300;28.52;39496.27
1739973696.518;300;28.52;39496.27
1739973696.567;300;28.52;39496.27
1739973696.719;300;23.06;34609.20
1739973696.769;300;22.85;34418.54
1739973696.818;300;22.85;34418.54
1739973697.169;300;23.96;35419.73
1739973697.219;300;23.96;35419.73
1739973697.269;300;24.35;35767.46
1739973697.319;300;24.41;35818.54
1739973697.368;300;24.41;35818.54
1739973697.418;300;28.91;39840.40
1739973697.469;300;28.91;39840.40
1739973697.519;300;28.91;39840.40
1739973697.568;300;24.66;36040.13
1739973697.618;300;24.66;36040.13
1739973697.668;300;24.21;35636.80
1739973698.069;300;23.29;34813.20
1739973698.369;300;23.85;35314.40
1739973698.419;300;23.85;35314.40
1739973698.469;300;28.32;39312.93
1739973698.519;300;28.32;39312.93
1739973698.569;300;28.32;39312.93
1739973698.620;300;24.95;36296.80
1739973698.670;300;24.95;36296.80
1739973698.720;300;28.98;39905.46
1739973698.770;300;28.98;39905.46
1739973698.820;300;28.98;39905.46
1739973698.870;300;29.08;39992.40
1739973698.920;300;29.08;39992.40
1739973698.971;300;27.61;38682.80
1739973699.020;300;26.12;37351.73
1739973699.070;300;26.12;37351.73
1739973699.121;300;28.04;39061.20
1739973699.170;300;28.04;39061.20
1739973699.220;300;29.02;39945.60
1739973699.270;300;29.02;39945.60
1739973699.320;300;28.40;39385.60
1739973699.370;300;25.38;36683.73
1739973699.420;300;25.38;36683.73
1739973699.471;300;27.91;38948.27
1739973699.521;300;27.91;38948.27
1739973699.571;300;25.40;36705.60
1739973699.621;300;25.40;36705.60
1739973699.671;300;29.16;40065.20
1739973699.721;300;29.16;40065.20
1739973699.771;300;27.78;38834.40
1739973699.821;300;28.09;39107.46
1739973699.871;300;28.09;39107.46
1739973699.921;300;28.75;39696.00
1739973699.972;300;28.75;39696.00
1739973700.021;300;29.02;39939.20
1739973700.071;300;26.14;37365.60
1739973700.121;300;26.14;37365.60
1739973700.172;300;29.40;40283.46
1739973700.221;300;29.40;40283.46
1739973700.271;300;28.69;39649.73
1739973700.322;300;28.69;39649.73
1739973700.371;300;28.69;39649.73
1739973700.421;300;23.25;34780.93
1739973700.471;300;23.25;34780.93
1739973700.521;300;23.09;34641.07
1739973700.571;300;23.09;34641.07
1739973700.621;300;29.35;40237.87
1739973700.671;300;29.35;40237.87
1739973700.721;300;27.77;38825.07
1739973709.398;300;23.02;34573.33
1739973709.448;300;23.02;34573.33
1739973709.498;300;28.94;39872.00
1739973709.549;300;28.94;39872.00
1739973709.599;300;28.16;39171.33
1739973709.649;300;28.16;39171.33
1739973709.699;300;25.19;36517.60
1739973709.749;300;25.19;36517.60
1739973709.799;300;28.92;39848.40
1739973709.850;300;28.92;39848.40
1739973709.899;300;25.23;36552.07
1739973709.949;300;24.73;36102.00
1739973710.000;300;24.73;36102.00
1739973710.049;300;28.01;39041.87
1739973710.099;300;28.01;39041.87
1739973710.149;300;24.35;35765.33
1739973710.199;300;24.09;35536.27
1739973710.249;300;24.09;35536.27
1739973710.299;300;28.75;39701.33
1739973710.349;300;28.75;39701.33
1739973710.399;300;28.45;39428.67
1739973710.449;300;28.45;39428.67
1739973710.499;300;28.65;39608.67
1739973710.549;300;28.11;39132.00
1739973710.599;300;28.11;39132.00
1739973710.649;300;24.30;35717.60
1739973710.700;300;24.30;35717.60
1739973710.749;300;27.13;38252.27
1739973710.800;300;27.13;38252.27
1739973710.850;300;25.17;36496.13
1739973710.899;300;24.33;35747.20
1739973710.949;300;24.33;35747.20
1739973710.999;300;29.31;40198.27
1739973711.050;300;29.31;40198.27
1739973711.099;300;27.69;38756.13
1739973711.150;300;27.69;38756.13
1739973711.199;300;24.08;35520.40
1739973711.249;300;24.06;35509.20
1739973711.300;300;24.06;35509.20
1739973711.350;300;23.43;34941.07
1739973711.400;300;23.43;34941.07
1739973711.450;300;28.73;39684.54
1739973711.500;300;28.73;39684.54
1739973711.550;300;26.22;37438.40
1739973711.599;300;22.82;34399.73
1739973711.650;300;22.82;34399.73
1739973711.700;300;26.74;37900.67
1739973711.750;300;26.74;37900.67
1739973711.800;300;28.41;39393.87
1739973711.850;300;28.41;39393.87
1739973711.899;300;26.79;37951.46
1739973711.951;300;26.79;37951.46
1739973712.000;300;29.00;39926.27
1739973712.051;300;25.75;37020.93
1739973712.101;300;25.75;37020.93
1739973712.601;300;22.89;34455.33
1739973712.652;300;22.89;34455.33
1739973712.701;300;22.81;34391.20
1739973712.751;300;26.86;38012.54
1739973712.802;300;26.86;38012.54
1739973712.851;300;24.27;35694.67
1739973712.901;300;24.27;35694.67
1739973712.951;300;26.07;37301.07
1739973713.002;300;26.07;37301.07
1739973713.051;300;23.69;35172.27
1739973713.101;300;27.61;38681.60
1739973713.151;300;27.61;38681.60
1739973713.202;300;28.75;39699.73
1739973713.252;300;28.75;39699.73
1739973713.302;300;28.79;39739.60
1739973713.352;300;28.79;39739.60
1739973713.402;300;24.52;35914.20
1739973713.451;300;24.42;35827.20
1739973713.503;300;24.42;35827.20
1739973722.443;300;22.97;34533.20
1739973722.493;300;22.97;34533.20
1739973722.543;300;22.97;34533.20
1739973722.593;300;28.58;39547.33
1739973722.643;300;28.58;39547.33
1739973722.693;300;23.46;34964.13
1739973722.743;300;24.27;35689.07
1739973722.793;300;24.27;35689.07
1739973722.843;300;28.92;39856.73
1739973722.893;300;28.92;39856.73
1739973722.944;300;28.92;39856.73
1739973722.994;300;27.65;38720.40
1739973723.044;300;27.65;38720.40
1739973723.094;300;23.81;35283.60
1739973723.144;300;23.81;35283.60
1739973723.244;300;27.51;38593.33
1739973723.294;300;27.51;38593.33
1739973723.393;300;27.73;38784.80
1739973723.443;300;27.73;38784.80
1739973723.494;300;27.32;38421.46
1739973723.544;300;27.32;38421.46
1739973723.594;300;27.22;38327.60
1739973723.644;300;27.26;38366.80
1739973723.694;300;27.26;38366.80
1739973723.744;300;23.89;35355.87
1739973723.794;300;26.66;37829.20
1739973723.844;300;26.66;37829.20
1739973723.894;300;28.20;39208.67
1739973723.944;300;28.20;39208.67
1739973723.994;300;28.91;39845.60
1739973724.044;300;23.47;34974.00
1739973724.094;300;23.47;34974.00
1739973724.144;300;25.55;36841.73
1739973724.194;300;25.55;36841.73
1739973724.244;300;25.55;36841.73
1739973724.295;300;28.80;39747.07
1739973724.344;300;28.80;39747.07
1739973724.394;300;28.78;39727.60
1739973724.444;300;28.78;39727.60
1739973724.494;300;28.78;39727.60
1739973724.544;300;24.16;35593.60
1739973724.594;300;24.16;35593.60
1739973724.644;300;24.16;35593.60
1739973724.694;300;26.84;37993.07
1739973724.745;300;26.84;37993.07
1739973724.795;300;29.01;39934.93
1739973724.845;300;29.01;39934.93
1739973724.895;300;29.01;39934.93
1739973724.945;300;27.10;38223.46
1739973724.995;300;27.10;38223.46
1739973725.045;300;24.66;36039.07
1739973725.095;300;29.24;40138.13
1739973725.147;300;29.24;40138.13
1739973725.297;300;23.88;35340.80
1739973725.448;300;27.53;38608.67
1739973725.498;300;27.53;38608.67
1739973725.549;300;23.70;35186.54
1739973725.599;300;25.78;37046.93
1739973725.648;300;25.78;37046.93
1739973725.698;300;24.82;36181.33
1739973725.748;300;24.82;36181.33
1739973725.799;300;24.82;36181.33
1739973725.849;300;29.10;40017.33
1739973725.899;300;29.10;40017.33
1739973725.949;300;23.71;35190.67
1739973725.999;300;28.74;39694.13
1739973726.050;300;28.74;39694.13
1739973726.099;300;28.73;39686.13
1739973726.149;300;28.73;39686.13
1739973726.200;300;28.70;39659.87
1739973726.249;300;22.91;34472.27
1739973726.299;300;22.91;34472.27
1739973726.349;300;23.23;34764.93
1739973726.399;300;23.23;34764.93
1739973726.449;300;23.23;34764.93
1739973726.500;300;23.80;35275.87
1739973726.549;300;23.80;35275.87
1739973726.599;300;27.54;38617.60
1739973726.650;300;27.56;38638.13
1739973726.699;300;27.56;38638.13
1739973726.750;300;29.15;40060.93
1739973726.800;300;29.15;40060.93
1739973726.850;300;29.15;40060.93
1739973726.899;300;25.53;36824.13
1739973726.950;300;25.53;36824.13
1739973727.000;300;25.77;37038.00
1739973727.049;300;25.77;37038.00
1739973727.100;300;25.77;37038.00
1739973727.150;300;29.16;40064.00
1739973727.200;300;29.16;40064.00
1739973727.250;300;28.86;39802.40
1739973943.851;200;22.90;34471.27
1739973943.900;200;22.90;34471.27
1739973943.951;200;28.11;39126.40
1739973944.001;200;28.11;39126.40
1739973944.051;200;28.11;39126.40
1739973944.102;200;29.54;40409.33
1739973944.150;200;29.54;40409.33
1739973944.201;200;28.15;39167.60
1739973944.251;200;28.15;39167.60
1739973944.301;200;28.15;39167.60
1739973944.351;200;29.36;40247.33
1739973944.401;200;29.36;40247.33
1739973944.451;200;29.36;40247.33
1739973944.501;200;24.56;35953.07
1739973944.551;200;24.56;35953.07
1739973944.601;200;28.15;39164.13
1739973944.651;200;28.15;39164.13
1739973944.701;200;28.15;39164.13
1739973944.751;200;29.45;40327.73
1739973944.801;200;29.45;40327.73
1739973944.851;200;28.66;39617.27
1739973944.901;200;23.51;35017.20
1739973944.950;200;23.51;35017.20
1739973945.001;200;25.93;37175.60
1739973945.051;200;25.93;37175.60
1739973945.101;200;23.21;34745.07
1739973945.151;200;24.51;35910.54
1739973945.201;200;24.51;35910.54
1739973945.250;200;29.36;40242.73
1739973945.301;200;29.36;40242.73
1739973945.351;200;29.36;40242.73
1739973945.400;200;28.43;39416.54
1739973945.451;200;28.43;39416.54
1739973945.501;200;24.08;35522.93
1739973945.553;200;24.08;35522.93
1739973945.601;200;24.08;35522.93
1739973945.851;200;23.00;34557.46
1739973945.901;200;23.69;35171.46
1739973945.953;200;23.69;35171.46
1739973946.001;200;26.06;37290.93
1739973946.051;200;26.06;37290.93
1739973946.101;200;26.06;37290.93
1739973946.151;200;24.51;35911.20
1739973946.201;200;24.51;35911.20
1739973946.250;200;23.05;34599.67
1739973946.301;200;22.93;34494.67
1739973946.351;200;22.93;34494.67
1739973946.401;200;28.91;39844.00
1739973946.451;200;28.91;39844.00
1739973946.501;200;27.98;39010.13
1739973946.551;200;27.98;39010.13
1739973946.601;200;27.98;39010.13
1739973946.651;200;29.24;40139.46
1739973946.700;200;29.24;40139.46
1739973946.751;200;27.70;38765.33
1739973946.801;200;26.62;37797.33
1739973946.851;200;26.62;37797.33
1739973946.900;200;28.74;39689.87
1739973946.952;200;28.74;39689.87
1739973947.002;200;28.74;39689.87
1739973947.052;200;23.39;34901.46
1739973947.102;200;23.39;34901.46
1739973947.152;200;22.81;34389.87
1739973947.552;200;22.88;34446.67
1739973947.603;200;22.88;34446.67
1739973947.652;200;22.88;34446.67
1739973947.702;200;29.10;40013.87
1739973947.752;200;29.10;40013.87
1739973947.802;200;29.14;40052.00
1739973947.852;200;29.14;40052.00
1739973947.902;200;29.14;40052.00
1739973947.953;200;29.58;40438.80
1739973948.003;200;29.58;40438.80
1739973948.052;200;29.58;40438.80
1739973948.103;200;26.29;37495.46
1739973948.153;200;26.29;37495.46
1739973948.203;200;28.91;39844.27
1739973948.254;200;25.15;36478.67
1739973948.304;200;25.15;36478.67
1739973948.354;200;23.89;35355.54
1739973948.403;200;23.89;35355.54
1739973948.454;200;23.89;35355.54
1739973948.504;200;23.65;35140.13
1739973948.553;200;23.65;35140.13
1739973948.604;200;27.24;38354.00
1739973948.654;200;25.74;37010.67
1739973948.704;200;25.74;37010.67
1739973958.015;200;22.87;34439.46
1739973958.065;200;22.87;34439.46
1739973958.115;200;29.14;40048.00
1739973958.165;200;29.14;40048.00
1739973958.215;200;27.29;38396.27
1739973958.265;200;27.29;38396.27
1739973958.315;200;27.29;38396.27
1739973958.715;200;23.81;35277.60
1739973958.765;200;23.81;35277.60
1739973958.815;200;28.99;39911.87
1739973958.865;200;28.99;39911.87
1739973958.915;200;27.27;38374.67
1739973958.965;200;25.25;36565.33
1739973959.015;200;25.25;36565.33
1739973959.065;200;27.30;38400.67
1739973959.116;200;27.30;38400.67
1739973959.165;200;25.46;36755.46
1739973959.215;200;25.46;36755.46
1739973959.265;200;27.15;38272.13
1739973959.315;200;27.15;38269.73
1739973959.365;200;27.15;38269.73
1739973959.415;200;29.56;40420.80
1739973959.465;200;29.56;40420.80
1739973959.515;200;27.31;38409.33
1739973959.565;200;27.31;38409.33
1739973959.615;200;29.04;39958.27
1739973959.665;200;29.04;39958.27
1739973959.715;200;27.59;38663.33
1739973959.765;200;27.55;38626.54
1739973959.815;200;27.55;38626.54
1739973960.065;200;24.07;35514.67
1739973960.115;200;23.89;35356.00
1739973960.166;200;23.89;35356.00
1739973960.215;200;29.23;40128.27
1739973960.266;200;29.23;40128.27
1739973960.316;200;29.28;40176.40
1739973960.365;200;29.28;40176.40
1739973960.416;200;24.25;35673.87
1739973960.466;200;24.25;35673.87
1739973960.516;200;29.02;39942.54
1739973960.567;200;27.63;38700.80
1739973960.616;200;27.63;38700.80
1739973960.666;200;23.84;35306.93
1739973960.716;200;23.84;35306.93
1739973960.766;200;23.70;35180.40
1739973960.816;200;24.61;35997.73
1739973960.866;200;24.61;35997.73
1739973960.917;200;28.12;39138.80
1739973960.967;200;28.12;39138.80
1739973961.017;200;27.68;38745.33
1739973961.067;200;27.68;38745.33
1739973961.117;200;27.43;38520.27
1739973961.167;200;27.43;38520.27
1739973961.218;200;24.46;35861.93
1739973961.267;200;24.46;35861.93
1739973961.318;200;27.39;38480.27
1739973961.368;200;25.10;36434.80
1739973961.418;200;25.10;36434.80
1739973961.467;200;29.00;39927.46
1739973961.517;200;29.00;39927.46
1739973961.567;200;24.44;35847.73
1739973961.617;200;24.44;35847.73
1739973961.667;200;25.37;36675.87
1739973961.717;200;27.38;38471.33
1739973961.767;200;27.38;38471.33
1739973961.817;200;28.99;39918.93
1739973961.867;200;28.99;39918.93
1739973961.917;200;25.37;36674.67
1739973961.968;200;25.37;36674.67
1739973962.017;200;25.23;36555.46
1739973962.067;200;25.23;36555.46
1739973971.110;200;22.98;34540.54
1739973971.160;200;22.98;34540.54
1739973971.210;200;28.51;39483.46
1739973971.260;200;28.51;39483.46
1739973971.510;200;24.90;36259.80
1739973971.560;200;22.97;34533.07
1739973971.611;200;22.97;34533.07
1739973971.660;200;24.71;36084.60
1739973971.711;200;24.71;36084.60
1739973971.761;200;29.52;40392.54
1739973971.811;200;23.29;34818.80
1739973971.861;200;23.29;34818.80
1739973971.910;200;29.61;40465.33
1739973971.961;200;29.61;40465.33
1739973972.011;200;29.20;40099.46
1739973972.060;200;29.20;40099.46
1739973972.110;200;24.23;35660.80
1739973972.161;200;24.23;35660.80
1739973972.211;200;27.30;38404.27
1739973972.261;200;27.30;38404.27
1739973972.311;200;24.56;35950.80
1739973972.361;200;24.49;35889.46
1739973972.410;200;24.49;35889.46
1739973972.461;200;27.71;38774.13
1739973972.511;200;27.71;38774.13
1739973972.560;200;26.99;38125.73
1739973972.611;200;26.99;38125.73
1739973972.660;200;28.67;39633.07
1739973972.811;200;25.21;36534.93
1739973972.861;200;25.21;36534.93
1739973972.911;200;29.48;40349.46
1739973972.961;200;29.48;40349.46
1739973973.011;200;29.43;40310.93
1739973973.061;200;29.43;40310.93
1739973973.111;200;29.43;40310.93
1739973973.162;200;28.80;39741.87
1739973973.211;200;28.80;39741.87
1739973973.261;200;26.14;37361.46
1739973973.311;200;26.14;37361.46
1739973973.361;200;27.42;38507.33
1739973973.411;200;28.39;39381.87
1739973973.462;200;28.39;39381.87
1739973973.713;200;23.07;34615.20
1739973973.763;200;23.16;34696.27
1739973973.813;200;22.82;34399.73
1739973973.864;200;27.45;38540.00
1739973973.913;200;27.45;38540.00
1739973973.963;200;24.54;35931.07
1739973974.014;200;24.54;35931.07
1739973974.063;200;29.33;40218.13
1739973974.114;200;27.89;38931.07
1739973974.164;200;27.89;38931.07
1739973974.214;200;28.09;39108.67
1739973974.263;200;28.09;39108.67
1739973974.313;200;23.16;34700.27
1739973974.364;200;23.16;34700.27
1739973974.414;200;28.62;39586.00
1739973974.464;200;28.62;39586.00
1739973974.514;200;28.36;39355.07
1739973974.564;200;28.67;39626.67
1739973974.614;200;28.67;39626.67
1739973974.665;200;23.97;35420.80
1739973974.715;200;23.97;35420.80
1739973974.765;200;28.65;39610.00
1739974323.890;122;10.00;34678.93
1739974323.940;121;10.00;34449.60
1739974323.990;121;10.00;34449.60
1739974324.039;147;10.00;38740.80
1739974324.090;147;10.00;38740.80
1739974324.139;121;10.00;34551.46
1739974324.290;156;10.00;40184.27
1739974324.440;121;10.00;34560.67
1739974324.490;121;10.00;34560.67
1739974324.590;121;10.00;34471.60
1739974324.640;121;10.00;34471.60
1739974324.690;146;10.00;38669.87
1739974324.740;146;10.00;38669.87
1739974324.790;153;10.00;39672.27
1739974324.840;138;10.00;37234.67
1739974324.890;138;10.00;37234.67
1739974324.940;150;10.00;39208.27
1739974324.990;150;10.00;39208.27
1739974325.040;150;10.00;39208.27
1739974325.090;148;10.00;39008.00
1739974325.140;148;10.00;39008.00
1739974325.190;123;10.00;34834.54
1739974325.240;123;10.00;34834.54
1739974325.291;123;10.00;34834.54
1739974325.340;151;10.00;39451.20
1739974325.391;151;10.00;39451.20
1739974325.440;151;10.00;39451.20
1739974325.490;141;10.00;37787.33
1739974325.540;141;10.00;37787.33
1739974325.691;123;10.00;34816.54
1739974325.741;123;10.00;34833.87
1739974325.791;123;10.00;34833.87
1739974325.840;145;10.00;38413.33
1739974325.891;145;10.00;38413.33
1739974325.941;145;10.00;38413.33
1739974325.991;133;10.00;36523.87
1739974326.040;133;10.00;36523.87
1739974326.090;137;10.00;37153.07
1739974326.141;126;10.00;35304.13
1739974326.191;126;10.00;35304.13
1739974326.240;152;10.00;39666.67
1739974327.291;123;10.00;34876.54
1739974327.340;123;10.00;34876.54
1739974327.390;123;10.00;34876.54
1739974327.441;144;10.00;38230.93
1739974327.492;144;10.00;38230.93
1739974327.542;144;10.00;38230.93
1739974327.592;144;10.00;38230.93
1739974327.642;144;10.00;38230.93
1739974327.691;144;10.00;38230.93
1739974327.741;144;10.00;38230.93
1739974327.792;144;10.00;38230.93
1739974327.841;144;10.00;38230.93
1739974327.892;144;10.00;38230.93
1739974327.942;144;10.00;38230.93
1739974327.991;144;10.00;38230.93
1739974328.041;144;10.00;38230.93
1739974328.091;144;10.00;38230.93
1739974328.141;144;10.00;38230.93
1739974328.191;144;10.00;38230.93
1739974328.242;152;10.00;39522.00
1739974328.292;143;10.00;38043.73
1739974328.342;144;10.00;38200.80
1739974328.392;138;10.00;37279.87
1739974328.442;131;10.00;36186.80
1739974328.492;132;10.00;36270.54
1739974328.542;132;10.00;36270.54
1739974328.592;132;10.00;36270.54
1739974328.642;132;10.00;36270.54
1739974328.692;132;10.00;36270.54
1739974328.742;132;10.00;36270.54
1739974328.793;132;10.00;36270.54
1739974328.843;122;10.00;34601.60
1739974329.043;149;10.00;39105.87
1739974329.092;124;10.00;34927.73
1739974329.143;121;10.00;34426.00
1739974329.193;121;10.00;34426.00
1739974329.243;124;10.00;35034.67
1739974329.293;124;10.00;35034.67
1739974329.342;124;10.00;35034.67
1739974329.393;154;10.00;39945.46
1739974329.443;154;10.00;39945.46
1739974329.494;139;10.00;37458.67
1739974329.543;121;10.00;34448.54
1739974329.594;121;10.00;34448.54
1739974329.644;152;10.00;39663.87
1739974329.695;152;10.00;39663.87
1739974329.744;152;10.00;39663.87
1739974329.795;153;10.00;39755.40
1739974329.845;153;10.00;39755.40
1739974329.895;129;10.00;35811.73
1739974329.945;124;10.00;35054.13
1739974329.995;124;10.00;35054.13
1739974337.493;121;10.00;34431.60
1739974337.543;121;10.00;34431.60
1739974337.592;129;10.00;35739.46
1739974337.642;129;10.00;35739.46
1739974337.693;126;10.00;35301.07
1739974337.742;126;10.00;35301.07
1739974337.792;144;10.00;38333.87
1739974337.842;153;10.00;39705.46
1739974337.893;153;10.00;39705.46
1739974338.745;129;10.00;35790.93
1739974338.795;129;10.00;35790.93
1739974338.895;122;10.00;34579.60
1739974338.945;122;10.00;34579.60
1739974338.995;149;10.00;39140.80
1739974339.045;149;10.00;39140.80
1739974339.095;148;10.00;38882.00
1739974339.144;148;10.00;38882.00
1739974339.195;126;10.00;35348.27
1739974339.245;126;10.00;35348.27
1739974339.695;124;10.00;34945.87
1739974339.745;124;10.00;34945.87
1739974339.795;146;10.00;38663.33
1739974339.845;146;10.00;38663.33
1739974339.895;147;10.00;38789.33
1739974339.945;147;10.00;38789.33
1739974339.995;134;10.00;36666.40
1739974340.395;125;10.00;35214.13
1739974340.445;125;10.00;35214.13
1739974340.496;123;10.00;34871.46
1739974340.545;123;10.00;34871.46
1739974340.596;146;10.00;38626.54
1739974340.645;146;10.00;38626.54
1739974340.695;134;10.00;36671.87
1739974340.745;134;10.00;36671.87
1739974340.796;136;10.00;36888.27
1739974340.846;136;10.00;36888.27
1739974340.896;131;10.00;36115.20
1739974340.946;155;10.00;40136.00
1739974340.996;155;10.00;40136.00
1739974341.046;156;10.00;40231.20
1739974341.096;156;10.00;40231.20
1739974341.146;151;10.00;39447.20
1739974341.196;146;10.00;38521.20
1739974341.246;146;10.00;38521.20
1739974341.296;155;10.00;40142.54
1739974341.346;155;10.00;40142.54
1739974341.497;124;10.00;34948.27
1739974341.546;124;10.00;34948.27
1739974341.647;153;10.00;39680.27
1739974341.696;153;10.00;39680.27
1739974341.746;144;10.00;38200.46
1739974341.796;144;10.00;38200.46
1739974341.846;151;10.00;39377.07
1739974341.896;151;10.00;39377.07
1739974341.946;133;10.00;36450.27
1739974341.996;133;10.00;36450.27
1739974342.046;133;10.00;36450.27
1739974342.096;153;10.00;39756.93
1739974342.146;153;10.00;39756.93
1739974342.197;149;10.00;39068.00
1739974342.246;156;10.00;40230.13
1739974342.297;156;10.00;40230.13
1739974342.347;143;10.00;38038.40
1739974342.397;143;10.00;38038.40
1739974342.447;155;10.00;40117.46
1739974342.497;155;10.00;40117.46
1739974342.548;155;10.00;40117.46
1739974342.598;149;10.00;39130.40
1739974342.648;149;10.00;39130.40
1739974342.697;150;10.00;39299.87
1739974342.748;150;10.00;39299.87
1739974342.798;151;10.00;39421.87
1739974342.848;151;10.00;39421.87
1739974352.017;121;10.00;34428.27
1739974352.068;121;10.00;34428.27
1739974352.167;134;10.00;36611.33
1739974352.218;134;10.00;36611.33
1739974352.267;155;10.00;40011.46
1739974352.318;155;10.00;40011.46
1739974352.367;139;10.00;37379.07
1739974352.418;139;10.00;37379.07
1739974352.467;132;10.00;36355.46
1739974352.517;132;10.00;36355.46
1739974352.568;121;10.00;34461.60
1739974352.618;123;10.00;34857.33
1739974352.667;123;10.00;34857.33
1739974352.718;153;10.00;39796.00
1739974352.768;153;10.00;39796.00
1739974352.817;126;10.00;35393.46
1739974352.868;126;10.00;35393.46
1739974352.917;126;10.00;35393.46
1739974352.968;138;10.00;37307.73
1739974353.017;138;10.00;37307.73
1739974353.068;142;10.00;37935.07
1739974353.117;142;10.00;37935.07
1739974353.167;138;10.00;37245.07
1739974353.217;138;10.00;37245.07
1739974353.268;127;10.00;35534.93
1739974353.317;132;10.00;36302.54
1739974353.367;132;10.00;36302.54
1739974353.417;145;10.00;38371.33
1739974353.468;145;10.00;38371.33
1739974353.617;156;10.00;40239.46
1739974353.768;121;10.00;34517.20
1739974353.818;121;10.00;34517.20
1739974353.868;143;10.00;38158.00
1739974353.918;143;10.00;38158.00
1739974353.967;150;10.00;39195.73
1739974354.018;150;10.00;39195.73
1739974354.068;129;10.00;35782.40
1739974354.118;134;10.00;36666.40
1739974354.168;134;10.00;36666.40
1739974354.218;155;10.00;40053.87
1739974354.268;155;10.00;40053.87
1739974354.319;134;10.00;36691.60
1739974354.368;147;10.00;38702.13
1739974354.418;147;10.00;38702.13
1739974354.469;157;10.00;40391.87
1739974354.518;157;10.00;40391.87
1739974354.569;139;10.00;37374.13
1739974354.618;139;10.00;37374.13
1739974354.668;150;10.00;39307.33
1739974354.718;150;10.00;39307.33
1739974354.768;144;10.00;38313.60
1739974354.818;142;10.00;38011.46
1739974354.869;142;10.00;38011.46
1739974354.918;156;10.00;40182.13
1739974354.968;156;10.00;40182.13
1739974355.018;130;10.00;35953.07
1739974355.069;130;10.00;35953.07
1739974355.119;151;10.00;39475.07
1739974355.169;144;10.00;38309.07
1739974355.219;144;10.00;38309.07
1739974355.269;156;10.00;40169.87
1739974355.318;156;10.00;40169.87
1739974355.368;149;10.00;39160.27
1739974355.418;149;10.00;39160.27
1739974355.469;155;10.00;40080.54
1739974355.519;122;10.00;34634.80
1739974355.569;122;10.00;34634.80
1739974355.619;144;10.00;38317.73
1739974526.631;123;50.00;34739.73
1739974526.931;121;50.00;34449.87
1739974526.981;121;50.00;34449.87
1739974527.031;131;50.00;36204.93
1739974527.081;131;50.00;36204.93
1739974527.131;127;50.00;35415.60
1739974527.181;132;50.00;36238.40
1739974527.231;132;50.00;36238.40
1739974527.281;124;50.00;35067.46
1739974527.331;124;50.00;35067.46
1739974527.381;124;50.00;35067.46
1739974527.431;143;50.00;38145.73
1739974527.481;143;50.00;38145.73
1739974527.531;122;50.00;34604.00
1739974527.831;122;50.00;34609.20
1739974527.881;122;50.00;34609.20
1739974527.932;126;50.00;35382.67
1739974527.981;127;50.00;35528.27
1739974528.031;127;50.00;35528.27
1739974528.081;125;50.00;35094.67
1739974528.132;125;50.00;35094.67
1739974528.182;132;50.00;36236.13
1739974528.233;134;50.00;36620.93
1739974528.283;134;50.00;36620.93
1739974528.482;125;50.00;35124.67
1739974528.533;125;50.00;35124.67
1739974528.583;129;50.00;35786.13
1739974528.632;129;50.00;35786.13
1739974528.682;136;50.00;36893.20
1739974528.733;137;50.00;37092.67
1739974528.782;137;50.00;37092.67
1739974528.833;124;50.00;34977.33
1739974528.882;124;50.00;34977.33
1739974528.933;124;50.00;34977.33
1739974528.982;151;50.00;39383.87
1739974529.033;151;50.00;39383.87
1739974529.083;136;50.00;37028.13
1739974529.133;120;50.00;34388.80
1739974529.183;120;50.00;34388.80
1739974529.232;122;50.00;34703.07
1739974529.282;122;50.00;34703.07
1739974529.333;122;50.00;34703.07
1739974529.383;138;50.00;37217.20
1739974529.435;138;50.00;37217.20
1739974529.484;130;50.00;35947.20
1739974529.635;123;50.00;34825.60
1739974530.036;124;50.00;35059.33
1739974530.086;124;50.00;35059.33
1739974530.135;128;50.00;35694.40
1739974530.186;125;50.00;35214.80
1739974530.236;125;50.00;35214.80
1739974530.386;120;50.00;34400.27
1739974530.436;128;50.00;35641.73
1739974530.486;128;50.00;35641.73
1739974530.536;145;50.00;38383.54
1739974530.586;129;50.00;35742.67
1739974530.636;129;50.00;35742.67
1739974530.686;133;50.00;36519.33
1739974530.736;133;50.00;36519.33
1739974530.786;138;50.00;37349.93
1739974530.836;132;50.00;36294.80
1739974530.886;132;50.00;36294.80
1739974530.936;122;50.00;34728.27
1739974530.985;121;50.00;34415.73
1739974531.036;121;50.00;34415.73
1739974531.086;128;50.00;35710.13
1739974531.136;128;50.00;35710.13
1739974531.186;142;50.00;37903.87
1739974540.792;123;50.00;34768.40
1739974541.193;125;50.00;35208.54
1739974541.243;124;50.00;34904.00
1739974541.292;124;50.00;34904.00
1739974541.343;156;50.00;40199.46
1739974541.393;156;50.00;40199.46
1739974541.443;157;50.00;40379.87
1739974541.494;126;50.00;35355.73
1739974541.543;126;50.00;35355.73
1739974541.593;139;50.00;37391.46
1739974541.644;139;50.00;37391.46
1739974541.694;139;50.00;37453.33
1739974541.745;130;50.00;35984.80
1739974541.796;130;50.00;35984.80
1739974541.846;147;50.00;38742.40
1739974541.896;146;50.00;38550.00
1739974541.946;146;50.00;38550.00
1739974541.996;123;50.00;34827.46
1739974542.045;123;50.00;34827.46
1739974542.095;122;50.00;34578.54
1739974542.146;148;50.00;38986.27
1739974542.195;148;50.00;38986.27
1739974542.246;156;50.00;40194.13
1739974542.295;156;50.00;40194.13
1739974542.346;156;50.00;40194.13
1739974542.546;125;50.00;35171.20
1739974542.596;125;50.00;35171.20
1739974542.646;151;50.00;39361.73
1739974542.695;151;50.00;39361.73
1739974542.746;148;50.00;38911.20
1739974542.796;142;50.00;37918.13
1739974542.847;142;50.00;37918.13
1739974542.896;137;50.00;37179.60
1739974542.946;137;50.00;37179.60
1739974542.996;136;50.00;36879.33
1739974543.046;123;50.00;34800.54
1739974543.097;123;50.00;34800.54
1739974543.146;134;50.00;36634.27
1739974543.196;134;50.00;36634.27
1739974543.247;134;50.00;36567.33
1739974543.296;131;50.00;36161.60
1739974543.347;131;50.00;36161.60
1739974543.397;134;50.00;36684.67
1739974543.447;146;50.00;38604.80
1739974543.497;146;50.00;38604.80
1739974543.548;146;50.00;38649.46
1739974543.597;138;50.00;37206.67
1739974543.647;138;50.00;37206.67
1739974543.698;137;50.00;37180.40
1739974543.749;137;50.00;37180.40
1739974543.798;131;50.00;36213.33
1739974543.848;128;50.00;35686.93
1739974543.898;128;50.00;35686.93
1739974543.949;130;50.00;35982.13
1739974543.999;130;50.00;35982.13
1739974544.049;130;50.00;35982.13
1739974544.100;155;50.00;40089.33
1739974544.149;155;50.00;40089.33
1739974544.199;141;50.00;37814.27
1739974544.249;141;50.00;37814.27
1739974544.299;141;50.00;37814.27
1739974544.350;152;50.00;39505.46
1739974544.400;152;50.00;39505.46
1739974544.450;139;50.00;37431.33
1739974544.499;123;50.00;34771.73
1739974544.549;123;50.00;34771.73
1739974544.900;123;50.00;34742.40
1739974544.950;123;50.00;34742.40
1739974545.001;154;50.00;39977.20
1739974545.051;154;50.00;39977.20
1739974545.101;154;50.00;39977.20
1739974545.152;126;50.00;35319.46
1739974545.202;126;50.00;35319.46
1739974545.252;123;50.00;34756.54
1739974545.302;121;50.00;34484.00
1739974545.352;121;50.00;34484.00
1739974555.422;135;50.00;36767.73
1739974555.472;135;50.00;36767.73
1739974555.522;135;50.00;36767.73
1739974555.572;150;50.00;39324.20
1739974555.622;150;50.00;39324.20
1739974555.672;158;50.00;40588.13
1739974555.722;135;50.00;36775.07
1739974555.772;135;50.00;36775.07
1739974555.822;132;50.00;36275.46
1739974555.872;132;50.00;36275.46
1739974555.922;129;50.00;35789.20
1739974555.972;124;50.00;35018.13
1739974556.022;124;50.00;35018.13
1739974556.072;135;50.00;36812.40
1739974556.122;137;50.00;37041.46
1739974556.173;137;50.00;37041.46
1739974556.222;128;50.00;35718.40
1739974556.273;128;50.00;35718.40
1739974556.322;128;50.00;35605.33
1739974556.373;123;50.00;34900.27
1739974556.422;123;50.00;34900.27
1739974556.473;122;50.00;34705.07
1739974556.523;126;50.00;35322.13
1739974556.573;126;50.00;35322.13
1739974556.623;155;50.00;40147.20
1739974556.674;155;50.00;40147.20
1739974556.724;145;50.00;38500.00
1739974556.774;145;50.00;38500.00
1739974556.825;145;50.00;38500.00
1739974556.875;131;50.00;36069.60
1739974556.924;131;50.00;36069.60
1739974556.975;128;50.00;35564.00
1739974557.124;124;50.00;35067.20
1739974557.175;124;50.00;35067.20
1739974557.276;127;50.00;35511.87
1739974557.326;127;50.00;35511.87
1739974557.376;130;50.00;36036.13
1739974557.426;121;50.00;34422.00
1739974557.476;121;50.00;34422.00
1739974557.526;128;50.00;35569.60
1739974557.575;128;50.00;35569.60
1739974557.626;128;50.00;35569.60
1739974557.676;131;50.00;36217.33
1739974557.725;131;50.00;36217.33
1739974557.776;140;50.00;37662.67
1739974557.826;133;50.00;36393.07
1739974557.876;133;50.00;36393.07
1739974557.926;128;50.00;35568.27
1739974557.975;128;50.00;35568.27
1739974558.026;137;50.00;37106.93
1739974558.076;137;50.00;37106.93
1739974558.126;137;50.00;37106.93
1739974558.176;128;50.00;35575.60
1739974558.226;128;50.00;35575.60
1739974558.276;128;50.00;35575.60
1739974558.326;153;50.00;39710.93
1739974558.380;153;50.00;39710.93
1739974558.428;124;50.00;35067.73
1739974558.478;122;50.00;34614.40
1739974558.528;122;50.00;34614.40
1739974558.578;127;50.00;35407.00
1739974558.628;127;50.00;35407.00
1739974558.678;127;50.00;35407.00
1739974558.728;120;50.00;34394.00
1739974558.778;120;50.00;34394.00
1739974558.828;124;50.00;34925.73
1739974558.878;125;50.00;35229.73
1739974558.928;125;50.00;35229.73
1739974558.978;156;50.00;40184.13
1739974559.028;156;50.00;40184.13
1739974559.078;156;50.00;40184.13
1739974559.129;155;50.00;40127.87
1739974559.178;155;50.00;40127.87
1739974559.228;141;50.00;37830.67
1739974559.278;141;50.00;37830.67
1739974559.328;141;50.00;37830.67
1739974559.478;144;50.00;38246.13
1739974559.628;124;50.00;34985.07
1739974699.845;400;23.15;34691.20
1739974699.894;400;23.15;34691.20
1739974699.944;400;28.63;39591.73
1739974699.994;400;28.63;39591.73
1739974700.044;400;28.63;39591.73
1739974700.094;400;26.25;37467.33
1739974700.144;400;26.25;37467.33
1739974700.194;400;24.79;36162.54
1739974700.244;400;24.79;36162.54
1739974700.294;400;24.79;36162.54
1739974700.344;400;29.08;39994.40
1739974700.394;400;29.08;39994.40
1739974700.444;400;24.14;35580.93
1739974700.494;400;26.05;37281.60
1739974700.544;400;26.05;37281.60
1739974700.594;400;28.47;39451.73
1739974700.644;400;28.47;39451.73
1739974700.695;400;28.62;39582.13
1739974700.744;400;23.69;35172.80
1739974700.794;400;23.69;35172.80
1739974700.845;400;23.64;35130.13
1739974700.895;400;23.64;35130.13
1739974700.944;400;23.71;35193.20
1739974700.995;400;23.77;35246.54
1739974701.045;400;23.77;35246.54
1739974701.095;400;28.34;39336.13
1739974701.144;400;25.98;37226.13
1739974701.195;400;25.98;37226.13
1739974701.245;400;28.77;39716.67
1739974701.294;400;28.77;39716.67
1739974701.345;400;28.77;39716.67
1739974701.395;400;25.93;37174.27
1739974701.445;400;25.93;37174.27
1739974701.496;400;28.32;39314.93
1739974701.546;400;28.32;39314.93
1739974701.596;400;28.32;39314.93
1739974701.647;400;28.49;39467.20
1739974701.696;400;28.49;39467.20
1739974701.746;400;25.97;37217.93
1739974701.797;400;23.32;34847.07
1739974701.847;400;23.32;34847.07
1739974701.897;400;25.72;36989.73
1739974701.946;400;25.72;36989.73
1739974701.996;400;28.94;39872.40
1739974702.046;400;28.94;39872.40
1739974702.097;400;28.94;39872.40
1739974702.147;400;28.35;39345.73
1739974702.197;400;28.35;39345.73
1739974702.247;400;28.35;39345.73
1739974702.296;400;26.64;37812.27
1739974702.347;400;26.64;37812.27
1739974702.396;400;28.17;39180.93
1739974702.446;400;28.17;39180.93
1739974702.497;400;28.17;39180.93
1739974702.547;400;28.31;39308.00
1739974702.597;400;28.31;39308.00
1739974702.647;400;23.40;34916.27
1739974702.697;400;23.40;34916.27
1739974702.747;400;23.40;34916.27
1739974702.797;400;28.71;39668.67
1739974702.846;400;28.71;39668.67
1739974702.898;400;28.36;39350.13
1739974702.947;400;27.53;38608.13
1739974702.997;400;27.53;38608.13
1739974703.047;400;27.65;38718.93
1739974703.097;400;27.65;38718.93
1739974703.148;400;27.65;38718.93
1739974703.197;400;24.09;35533.46
1739974703.247;400;24.09;35533.46
1739974703.297;400;28.38;39365.87
1739974703.348;400;28.52;39497.07
1739974703.398;400;28.52;39497.07
1739974703.448;400;26.14;37369.20
1739974703.498;400;26.14;37369.20
1739974703.548;400;26.14;37369.20
1739974703.598;400;23.69;35172.67
1739974703.647;400;23.69;35172.67
1739974703.698;400;28.10;39122.73
1739974703.748;400;28.10;39122.73
1739974703.799;400;28.10;39122.73
1739974703.848;400;27.99;39021.20
1739974703.900;400;27.99;39021.20
1739974703.999;400;22.81;34391.46
1739974704.049;400;22.81;34391.46
1739974704.100;400;24.88;36243.07
1739974704.149;400;24.88;36243.07
1739974704.199;400;26.08;37311.07
1739974704.249;400;24.87;36233.73
1739974704.300;400;24.87;36233.73
1739974704.349;400;28.61;39573.46
1739974704.400;400;28.61;39573.46
1739974704.450;400;28.74;39694.54
1739974704.499;400;28.68;39638.93
1739974704.550;400;28.68;39638.93
1739974704.600;400;28.06;39082.80
1739974714.165;400;22.86;34435.46
1739974714.567;400;23.31;34832.40
1739974714.617;400;23.31;34832.40
1739974714.667;400;23.31;34832.40
1739974714.718;400;27.17;38289.33
1739974714.768;400;27.17;38289.33
1739974714.818;400;28.99;39918.27
1739974714.867;400;26.27;37481.60
1739974714.917;400;26.27;37481.60
1739974714.968;400;24.54;35936.67
1739974715.017;400;24.54;35936.67
1739974715.067;400;24.54;35936.67
1739974715.117;400;22.86;34428.27
1739974715.168;400;26.64;37814.54
1739974715.218;400;26.64;37814.54
1739974715.268;400;26.45;37642.80
1739974715.319;400;26.23;37449.87
1739974715.368;400;26.23;37449.87
1739974715.418;400;28.32;39312.27
1739974715.469;400;28.32;39312.27
1739974715.519;400;28.32;39312.27
1739974715.569;400;27.27;38372.80
1739974715.619;400;27.27;38372.80
1739974715.668;400;27.40;38492.80
1739974715.718;400;27.40;38492.80
1739974715.769;400;29.06;39977.87
1739974716.069;400;23.89;35357.46
1739974716.118;400;23.89;35357.46
1739974716.168;400;23.89;35357.46
1739974716.470;400;24.66;36044.80
1739974716.519;400;24.66;36044.80
1739974716.569;400;28.88;39814.93
1739974716.619;400;28.88;39814.93
1739974716.669;400;28.88;39814.93
1739974716.719;400;28.17;39185.07
1739974716.769;400;28.17;39185.07
1739974716.819;400;29.07;39988.40
1739974716.869;400;29.07;39988.40
1739974716.920;400;29.07;39988.40
1739974716.970;400;24.38;35790.67
1739974717.020;400;24.38;35790.67
1739974717.119;400;25.37;36675.46
1739974717.170;400;25.37;36675.46
1739974717.219;400;29.35;40235.07
1739974717.270;400;29.35;40235.07
1739974717.321;400;29.35;40235.07
1739974717.520;400;22.91;34477.07
1739974717.570;400;22.91;34477.07
1739974717.621;400;28.63;39596.93
1739974717.671;400;28.63;39596.93
1739974717.721;400;28.76;39705.60
1739974717.771;400;29.17;40073.33
1739974717.821;400;29.17;40073.33
1739974717.872;400;27.40;38496.54
1739974717.921;400;27.40;38496.54
1739974717.972;400;27.40;38496.54
1739974718.021;400;28.96;39887.67
1739974718.071;400;28.96;39887.67
1739974718.122;400;26.75;37908.07
1739974718.171;400;28.35;39344.93
1739974718.222;400;28.35;39344.93
1739974718.271;400;24.42;35824.93
1739974718.322;400;24.42;35824.93
1739974718.372;400;23.84;35312.54
1739974718.421;400;27.81;38859.73
1739974718.472;400;27.81;38859.73
1739974718.522;400;27.32;38425.27
1739974718.573;400;27.32;38425.27
1739974718.623;400;27.32;38425.27
1739974718.672;400;28.44;39420.93
1739974718.723;400;28.44;39420.93
1739974718.773;400;29.01;39932.54
1739974718.822;400;29.01;39932.54
1739974718.872;400;29.01;39932.54
1739974731.182;400;22.80;34381.60
1739974731.232;400;22.80;34381.60
1739974731.433;400;23.74;35214.93
1739974731.483;400;23.74;35214.93
1739974731.533;400;28.61;39572.27
1739974731.583;400;28.61;39572.27
1739974731.633;400;28.69;39645.07
1739974731.683;400;28.69;39645.07
1739974731.733;400;26.03;37271.60
1739974731.783;400;23.24;34770.13
1739974731.834;400;23.24;34770.13
1739974731.884;400;28.55;39522.40
1739974731.934;400;28.55;39522.40
1739974731.984;400;27.44;38529.87
1739974732.035;400;27.44;38529.87
1739974732.084;400;24.09;35530.67
