UnixTimestamp;Microseconds;MilliAmpere;BaseValue
1725875752.446;500;1.00
1725875752.494;500;1.00
1725875752.545;500;1.00
1725875752.594;500;1.00
1725875752.645;500;1.00
1725875752.696;500;1.00
1725875752.746;500;1.00
1725875752.795;500;1.00
1725875752.845;500;1.00
1725875752.897;500;1.00
1725875752.947;500;1.00
1725875752.997;500;1.00
1725875753.046;500;1.00
1725875753.098;500;1.00
1725875756.332;1;40.00
1725875756.381;1;40.00
1725875756.432;1;40.00
1725875756.481;1;40.00
1725875756.531;1;40.00
1725875756.581;1;40.00
1725875756.631;1;40.00
1725875756.682;1;40.00
1725875756.732;1;40.00
1725875756.782;1;40.00
1725875756.832;1;40.00
1725875756.882;1;40.00
1725875756.933;1;40.00
1725875756.984;1;40.00
1725875757.034;1;40.00
1725875781.629;78;30.00;37126.13
1725875781.679;84;30.00;36171.07
1725875781.729;84;30.00;36171.07
1725875781.779;52;30.00;41762.67
1725875781.828;48;30.00;42384.93
1725875781.878;48;30.00;42384.93
1725875781.929;47;30.00;42516.67
1725875781.979;60;30.00;40224.80
1725875782.029;60;30.00;40224.80
1725875782.078;60;30.00;40224.80
1725875782.129;56;30.00;41050.54
1725875782.179;56;30.00;41050.54
1725875782.229;56;30.00;41050.54
1725875782.279;75;30.00;37679.33
1725875782.328;61;30.00;40168.40
1725875782.379;61;30.00;40168.40
1725875782.429;69;30.00;38708.93
1725875782.479;50;30.00;41966.40
1725875782.528;50;30.00;41966.40
1725875782.579;50;30.00;41966.40
1725875782.628;59;30.00;40511.20
1725875782.679;54;30.00;41310.00
1725875782.729;54;30.00;41310.00
1725875782.779;53;30.00;41509.20
1725875782.829;63;30.00;39702.07
1725875782.879;63;30.00;39702.07
1725875782.929;63;30.00;39702.07
1725875782.980;80;30.00;36822.67
1725875783.030;80;30.00;36822.67
1725875783.080;80;30.00;36822.67
1725875783.129;87;30.00;35632.00
1725875783.180;87;30.00;35623.20
1725875783.230;87;30.00;35623.20
1725875783.279;87;30.00;35623.20
1725875783.330;71;30.00;38409.73
1725875783.380;71;30.00;38409.73
1725875783.430;71;30.00;38409.73
1725875783.480;77;30.00;37411.33
1725875783.530;39;30.00;43944.80
1725875783.580;39;30.00;43944.80
1725875783.629;51;30.00;41892.27
1725875783.679;63;30.00;39823.60
1725875783.730;58;30.00;40640.27
1725875783.779;58;30.00;40640.27
1725875783.830;52;30.00;41750.00
1725875783.879;70;30.00;38492.27
1725875783.930;54;30.00;41319.54
1725875783.980;54;30.00;41319.54
1725875784.029;45;30.00;42924.54
1725875784.080;51;30.00;41885.07
1725875784.129;51;30.00;41885.07
1725875784.180;51;30.00;41885.07
1725875784.230;78;30.00;37122.13
1725875784.281;78;30.00;37237.87
1725875784.330;78;30.00;37237.87
1725875784.381;78;30.00;37237.87
1725875784.430;68;30.00;38835.87
1725875784.481;68;30.00;38835.87
1725875784.531;68;30.00;38835.87
1725875784.582;49;30.00;42248.67
1725875784.632;75;30.00;37623.33
1725875784.682;75;30.00;37623.33
1725875784.731;75;30.00;37623.33
1725875784.782;67;30.00;39071.46
1725875784.832;81;30.00;36712.54
1725875784.881;81;30.00;36712.54
1725875784.931;66;30.00;39305.80
1725875784.982;48;30.00;42419.27
1725875785.032;52;30.00;41722.20
1725875785.081;52;30.00;41722.20
1725875785.133;54;30.00;41351.93
1725875785.183;65;30.00;39449.54
1725875785.233;56;30.00;40962.93
1725875785.284;56;30.00;40962.93
1725875785.334;53;30.00;41533.40
1725875785.384;50;30.00;42027.73
1725875785.434;50;30.00;42041.93
1725875785.483;50;30.00;42041.93
1725875785.535;52;30.00;41670.80
1725875785.585;56;30.00;40989.73
1725875785.635;44;30.00;43025.54
1725875785.685;44;30.00;43025.54
1725875785.735;44;30.00;43025.54
1725875785.784;50;30.00;42003.20
1725875785.834;80;30.00;36838.13
1725875797.170;79;30.00;36926.80
1725875797.220;79;30.00;36926.80
1725875797.269;79;30.00;36926.80
1725875797.319;48;30.00;42392.93
1725875797.370;48;30.00;42392.93
1725875797.419;48;30.00;42392.93
1725875797.470;67;30.00;39142.67
1725875797.519;78;30.00;37146.54
1725875797.570;78;30.00;37146.54
1725875797.620;78;30.00;37146.54
1725875797.669;68;30.00;38878.33
1725875797.721;69;30.00;38785.33
1725875797.771;69;30.00;38785.33
1725875797.821;69;30.00;38785.33
1725875797.870;53;30.00;41564.93
1725875797.922;68;30.00;38941.20
1725875797.972;68;30.00;38941.20
1725875798.022;68;30.00;38941.20
1725875798.072;84;30.00;36231.73
1725875798.122;84;30.00;36094.80
1725875798.172;84;30.00;36094.80
1725875798.222;84;30.00;36094.80
1725875798.272;30;30.00;45411.46
1725875798.322;60;30.00;40270.40
1725875798.372;60;30.00;40270.40
1725875798.423;82;30.00;36494.13
1725875798.472;47;30.00;42546.93
1725875798.523;47;30.00;42546.93
1725875798.574;47;30.00;42546.93
1725875798.623;67;30.00;39071.46
1725875798.673;67;30.00;39071.46
1725875798.724;67;30.00;39071.46
1725875798.775;75;30.00;37625.07
1725875798.824;56;30.00;40917.40
1725875798.874;56;30.00;40917.40
1725875798.924;56;30.00;40917.40
1725875798.974;57;30.00;40833.93
1725875799.024;61;30.00;40175.87
1725875799.074;61;30.00;40175.87
1725875799.125;61;30.00;40175.87
1725875799.175;51;30.00;41828.60
1725875799.224;65;30.00;39436.00
1725875799.274;65;30.00;39436.00
1725875799.325;65;30.00;39436.00
1725875799.375;59;30.00;40414.27
1725875799.425;61;30.00;40064.27
1725875799.475;61;30.00;40064.27
1725875799.525;89;30.00;35223.40
1725875799.574;73;30.00;38046.54
1725875799.625;66;30.00;39304.80
1725875799.675;66;30.00;39304.80
1725875799.724;52;30.00;41756.80
1725875799.774;52;30.00;41682.67
1725875799.825;52;30.00;41682.67
1725875799.874;52;30.00;41682.67
1725875799.925;36;30.00;44522.27
1725875799.975;36;30.00;44522.27
1725875800.025;36;30.00;44522.27
1725875800.075;71;30.00;38421.07
1725875800.125;74;30.00;37827.20
1725875800.175;74;30.00;37827.20
1725875800.225;74;30.00;37827.20
1725875800.275;61;30.00;40174.80
1725875800.325;53;30.00;41440.00
1725875800.375;53;30.00;41440.00
1725875800.425;61;30.00;40181.20
1725875800.475;34;30.00;44848.93
1725875800.526;34;30.00;44848.93
1725875800.576;34;30.00;44848.93
1725875800.625;56;30.00;41063.33
1725875800.675;56;30.00;41063.33
1725875800.726;56;30.00;40913.87
1725875800.775;72;30.00;38261.87
1725875800.827;54;30.00;41283.46
1725875800.877;54;30.00;41283.46
1725875800.926;40;30.00;43696.40
1725875800.977;63;30.00;39770.00
1725875801.026;63;30.00;39770.00
1725875801.076;63;30.00;39770.00
1725875801.126;60;30.00;40220.93
1725875801.176;60;30.00;40220.93
1725875801.227;60;30.00;40220.93
1725875801.276;58;30.00;40711.60
1725875801.327;69;30.00;38820.40
1725875801.376;69;30.00;38820.40
1725875801.426;69;30.00;38820.40
1725875801.476;43;30.00;43248.46
1725875801.526;46;30.00;42720.54
1725875801.577;46;30.00;42720.54
1725875801.627;46;30.00;42720.54
1725875801.677;62;30.00;40033.07
1725875813.408;87;30.00;35647.73
1725875813.459;88;30.00;35394.40
1725875813.508;88;30.00;35394.40
1725875813.558;87;30.00;35703.20
1725875813.608;82;30.00;36432.67
1725875813.659;82;30.00;36432.67
1725875813.709;82;30.00;36432.67
1725875813.759;41;30.00;43611.07
1725875813.809;70;30.00;38542.80
1725875813.858;70;30.00;38542.80
1725875813.909;70;30.00;38542.80
1725875813.959;91;30.00;34996.00
1725875814.009;53;30.00;41512.80
1725875814.059;53;30.00;41512.80
1725875814.110;53;30.00;41512.80
1725875814.160;68;30.00;38884.67
1725875814.209;80;30.00;36861.60
1725875814.260;80;30.00;36861.60
1725875814.310;80;30.00;36861.60
1725875814.360;59;30.00;40443.46
1725875814.409;43;30.00;43331.07
1725875814.460;43;30.00;43331.07
1725875814.510;43;30.00;43331.07
1725875814.610;48;30.00;42430.80
1725875814.659;48;30.00;42430.80
1725875814.709;48;30.00;42430.80
1725875814.759;88;30.00;35449.07
1725875814.809;44;30.00;43099.20
1725875814.860;44;30.00;43099.20
1725875814.910;44;30.00;43099.20
1725875814.960;56;30.00;41051.07
1725875815.010;56;30.00;41079.20
1725875815.060;56;30.00;41079.20
1725875815.110;62;30.00;39904.07
1725875815.160;75;30.00;37751.40
1725875815.210;75;30.00;37751.40
1725875815.260;70;30.00;38491.20
1725875815.309;70;30.00;38491.20
1725875815.360;70;30.00;38491.20
1725875815.410;36;30.00;44417.00
1725875815.460;53;30.00;41485.60
1725875815.510;53;30.00;41485.60
1725875815.560;62;30.00;39915.46
1725875815.610;79;30.00;37080.00
1725875815.661;79;30.00;37080.00
1725875815.710;37;30.00;44335.73
1725875815.761;55;30.00;41111.20
1725875815.812;55;30.00;41111.20
1725875815.862;42;30.00;43344.40
1725875815.912;88;30.00;35452.80
1725875815.962;88;30.00;35452.80
1725875816.011;88;30.00;35452.80
1725875816.061;61;30.00;40158.46
1725875816.112;80;30.00;36890.40
1725875816.163;73;30.00;38097.73
1725875816.213;73;30.00;38097.73
1725875816.263;73;30.00;38097.73
1725875816.313;68;30.00;38857.67
1725875816.364;83;30.00;36348.40
1725875816.414;83;30.00;36348.40
1725875816.464;83;30.00;36348.40
1725875816.515;76;30.00;37614.67
1725875816.564;60;30.00;40338.73
1725875816.615;60;30.00;40338.73
1725875816.665;60;30.00;40338.73
1725875816.715;64;30.00;39670.13
1725875816.764;51;30.00;41843.80
1725875816.815;51;30.00;41843.80
1725875816.864;51;30.00;41843.80
1725875816.915;55;30.00;41121.87
1725875816.965;73;30.00;38007.33
1725875817.015;73;30.00;38007.33
1725875817.066;77;30.00;37357.60
1725875817.115;45;30.00;42824.67
1725875817.165;67;30.00;39106.13
1725875817.216;67;30.00;39106.13
1725875817.267;43;30.00;43237.07
1725875817.317;81;30.00;36675.60
1725875817.369;81;30.00;36675.60
1725875817.418;81;30.00;36675.60
1725875817.469;50;30.00;41948.13
1725875817.519;50;30.00;41948.13
1725875817.569;50;30.00;41948.13
1725875817.619;61;30.00;40111.33
1725876141.805;69;20.00;38744.54
1725876141.854;69;20.00;38744.54
1725876141.904;69;20.00;38744.54
1725876141.955;86;20.00;35832.40
1725876142.005;56;20.00;40998.67
1725876142.057;56;20.00;40998.67
1725876142.107;56;20.00;40998.67
1725876142.157;53;20.00;41568.54
1725876142.207;74;20.00;37946.00
1725876142.257;74;20.00;37946.00
1725876142.307;53;20.00;41526.93
1725876142.357;85;20.00;35998.00
1725876142.406;85;20.00;35998.00
1725876142.457;85;20.00;35998.00
1725876142.507;72;20.00;38304.73
1725876142.557;72;20.00;38304.73
1725876142.607;72;20.00;38304.73
1725876142.657;65;20.00;39480.54
1725876142.707;87;20.00;35552.13
1725876142.758;87;20.00;35552.13
1725876142.808;70;20.00;38546.13
1725876142.858;54;20.00;41374.54
1725876142.908;54;20.00;41374.54
1725876142.958;54;20.00;41374.54
1725876143.008;71;20.00;38436.93
1725876143.058;66;20.00;39286.80
1725876143.109;66;20.00;39286.80
1725876143.158;66;20.00;39286.80
1725876143.209;79;20.00;36982.20
1725876143.258;75;20.00;37653.87
1725876143.308;75;20.00;37653.87
1725876143.359;75;20.00;37653.87
1725876143.408;51;20.00;41918.93
1725876143.459;68;20.00;38869.07
1725876143.509;68;20.00;38869.07
1725876143.559;68;20.00;38869.07
1725876143.609;68;20.00;38869.07
1725876143.659;57;20.00;40812.27
1725876143.708;67;20.00;39048.07
1725876143.759;67;20.00;39048.07
1725876143.809;67;20.00;39048.07
1725876143.860;66;20.00;39303.73
1725876143.910;66;20.00;39303.73
1725876143.960;66;20.00;39303.73
1725876144.010;78;20.00;37223.07
1725876144.060;84;20.00;36143.60
1725876144.110;84;20.00;36143.60
1725876144.160;84;20.00;36143.60
1725876144.210;46;20.00;42670.27
1725876144.259;48;20.00;42384.00
1725876144.310;48;20.00;42384.00
1725876144.360;46;20.00;42704.27
1725876144.410;66;20.00;39228.20
1725876144.461;66;20.00;39228.20
1725876144.510;66;20.00;39228.20
1725876144.561;73;20.00;38092.80
1725876144.611;73;20.00;38092.80
1725876144.661;73;20.00;38092.80
1725876144.711;62;20.00;39878.80
1725876144.761;66;20.00;39200.27
1725876144.811;66;20.00;39200.27
1725876144.861;66;20.00;39200.27
1725876144.911;83;20.00;36319.33
1725876144.962;63;20.00;39840.54
1725876145.011;63;20.00;39840.54
1725876145.062;86;20.00;35758.93
1725876145.112;76;20.00;37536.00
1725876145.162;76;20.00;37536.00
1725876145.212;76;20.00;37536.00
1725876145.262;50;20.00;42036.54
1725876145.312;39;20.00;43877.80
1725876145.362;39;20.00;43877.80
1725876145.412;39;20.00;43877.80
1725876145.462;81;20.00;36685.07
1725876145.512;81;20.00;36685.07
1725876145.563;81;20.00;36685.07
1725876145.612;46;20.00;42806.13
1725876145.813;43;20.00;43195.73
1725876145.863;70;20.00;38573.07
1725876145.913;70;20.00;38573.07
1725876145.963;70;20.00;38573.07
1725876146.013;88;20.00;35419.33
1725876157.369;88;20.00;35414.54
1725876157.420;86;20.00;35794.80
1725876157.469;86;20.00;35794.80
1725876157.519;50;20.00;42117.60
1725876157.569;82;20.00;36515.20
1725876157.619;82;20.00;36515.20
1725876157.670;82;20.00;36515.20
1725876157.719;37;20.00;44343.20
1725876157.769;37;20.00;44343.20
1725876157.819;37;20.00;44343.20
1725876157.870;79;20.00;37003.20
1725876157.920;79;20.00;37003.20
1725876157.969;79;20.00;37003.20
1725876158.019;67;20.00;39107.73
1725876158.069;69;20.00;38757.87
1725876158.119;69;20.00;38757.87
1725876158.169;69;20.00;38757.87
1725876158.220;57;20.00;40890.67
1725876158.270;56;20.00;40973.07
1725876158.320;56;20.00;40973.07
1725876158.369;56;20.00;40973.07
1725876158.419;65;20.00;39430.00
1725876158.469;61;20.00;40114.00
1725876158.520;61;20.00;40114.00
1725876158.569;61;20.00;40114.00
1725876158.619;63;20.00;39726.93
1725876158.669;58;20.00;40652.27
1725876158.720;58;20.00;40652.27
1725876158.770;58;20.00;40652.27
1725876158.820;88;20.00;35447.20
1725876158.869;88;20.00;35447.20
1725876158.920;88;20.00;35447.20
1725876158.970;69;20.00;38827.07
1725876159.019;57;20.00;40758.73
1725876159.070;57;20.00;40758.73
1725876159.119;57;20.00;40758.73
1725876159.170;52;20.00;41767.20
1725876159.219;52;20.00;41767.20
1725876159.269;52;20.00;41767.20
1725876159.319;53;20.00;41569.20
1725876159.370;53;20.00;41436.00
1725876159.420;53;20.00;41436.00
1725876159.470;53;20.00;41436.00
1725876159.519;71;20.00;38445.60
1725876159.570;59;20.00;40500.93
1725876159.619;86;20.00;35796.40
1725876159.669;86;20.00;35796.40
1725876159.719;86;20.00;35796.40
1725876159.770;56;20.00;40964.80
1725876159.821;74;20.00;37912.67
1725876159.870;74;20.00;37912.67
1725876159.921;74;20.00;37864.67
1725876159.971;56;20.00;41066.13
1725876160.020;78;20.00;37175.87
1725876160.070;78;20.00;37175.87
1725876160.121;83;20.00;36385.33
1725876160.170;88;20.00;35394.87
1725876160.220;69;20.00;38821.93
1725876160.271;69;20.00;38821.93
1725876160.321;60;20.00;40230.27
1725876160.371;41;20.00;43639.73
1725876160.421;41;20.00;43639.73
1725876160.470;41;20.00;43639.73
1725876160.520;49;20.00;42211.33
1725876160.572;74;20.00;37841.87
1725876160.622;74;20.00;37841.87
1725876160.672;74;20.00;37841.87
1725876160.721;52;20.00;41601.60
1725876160.773;52;20.00;41601.60
1725876160.824;52;20.00;41601.60
1725876160.875;52;20.00;41670.60
1725876160.925;59;20.00;40465.67
1725876160.975;61;20.00;40177.13
1725876161.024;61;20.00;40177.13
1725876161.076;61;20.00;40177.13
1725876161.127;83;20.00;36370.27
1725876161.177;64;20.00;39541.33
1725876161.227;64;20.00;39541.33
1725876161.277;64;20.00;39541.33
1725876161.327;83;20.00;36307.60
1725876161.376;78;20.00;37208.93
1725876161.427;63;20.00;39743.20
1725876161.477;63;20.00;39743.20
1725876161.527;42;20.00;43438.67
1725876161.576;51;20.00;41788.00
1725876161.627;71;20.00;38475.73
1725876161.676;71;20.00;38475.73
1725876161.726;71;20.00;38475.73
1725876161.778;84;20.00;36145.40
1725876161.828;54;20.00;41422.46
1725876161.878;54;20.00;41422.46
1725876161.928;52;20.00;41772.67
1725876161.978;84;20.00;36223.60
1725876173.549;88;20.00;35537.46
1725876173.598;88;20.00;35537.46
1725876173.649;88;20.00;35537.46
1725876173.749;61;20.00;40212.87
1725876173.798;61;20.00;40212.87
1725876173.848;52;20.00;41621.87
1725876173.898;32;20.00;45149.20
1725876173.949;51;20.00;41854.80
1725876173.998;51;20.00;41854.80
1725876174.049;86;20.00;35790.40
1725876174.099;78;20.00;37098.00
1725876174.148;78;20.00;37098.00
1725876174.198;78;20.00;37098.00
1725876174.248;55;20.00;41138.93
1725876174.298;53;20.00;41596.40
1725876174.349;53;20.00;41596.40
1725876174.399;53;20.00;41596.40
1725876174.448;79;20.00;36978.13
1725876174.498;79;20.00;37020.40
1725876174.549;79;20.00;37020.40
1725876174.599;79;20.00;37020.40
1725876174.648;48;20.00;42377.46
1725876174.698;59;20.00;40394.93
1725876174.748;59;20.00;40394.93
1725876174.799;59;20.00;40394.93
1725876174.849;84;20.00;36170.54
1725876174.898;84;20.00;36170.54
1725876174.949;84;20.00;36170.54
1725876174.998;51;20.00;41807.67
1725876175.049;51;20.00;41807.67
1725876175.099;51;20.00;41807.67
1725876175.149;49;20.00;42181.20
1725876175.199;57;20.00;40741.46
1725876175.250;57;20.00;40741.46
1725876175.299;57;20.00;40741.46
1725876175.399;59;20.00;40405.73
1725876175.450;59;20.00;40405.73
1725876175.499;59;20.00;40405.73
1725876175.550;87;20.00;35543.20
1725876175.600;60;20.00;40269.87
1725876175.650;60;20.00;40269.87
1725876175.699;60;20.00;40269.87
1725876175.749;78;20.00;37224.54
1725876175.800;61;20.00;40122.40
1725876175.850;61;20.00;40122.40
1725876175.899;61;20.00;40122.40
1725876175.950;71;20.00;38462.54
1725876175.999;71;20.00;38462.54
1725876176.049;71;20.00;38462.54
1725876176.100;53;20.00;41467.87
1725876176.149;55;20.00;41243.60
1725876176.200;55;20.00;41243.60
1725876176.250;57;20.00;40792.67
1725876176.300;61;20.00;40179.20
1725876176.350;61;20.00;40179.20
1725876176.400;61;20.00;40179.20
1725876176.450;43;20.00;43235.80
1725876176.501;43;20.00;43235.80
1725876176.552;43;20.00;43235.80
1725876176.603;70;20.00;38629.46
1725876176.653;70;20.00;38629.46
1725876176.703;70;20.00;38629.46
1725876176.754;75;20.00;37722.67
1725876176.804;73;20.00;38079.73
1725876176.854;73;20.00;38079.73
1725876176.904;73;20.00;38079.73
1725876176.954;62;20.00;39978.46
1725876177.005;61;20.00;40080.27
1725876177.055;61;20.00;40080.27
1725876177.105;61;20.00;40080.27
1725876177.156;56;20.00;41005.46
1725876177.206;61;20.00;40114.00
1725876177.256;61;20.00;40114.00
1725876177.306;61;20.00;40114.00
1725876177.357;71;20.00;38338.27
1725876177.407;49;20.00;42151.73
1725876177.457;49;20.00;42151.73
1725876177.506;49;20.00;42151.73
1725876177.557;50;20.00;42058.54
1725876306.698;350;16.17;36123.07
1725876306.747;350;16.15;36071.27
1725876306.798;350;16.15;36071.27
1725876306.847;350;16.15;36071.27
1725876306.898;350;16.94;37875.07
1725876306.948;350;16.94;37875.07
1725876306.998;350;16.94;37875.07
1725876307.048;350;18.86;42253.80
1725876307.098;350;16.93;37852.80
1725876307.149;350;16.93;37852.80
1725876307.198;350;16.93;37852.80
1725876307.249;350;16.08;35926.93
1725876307.299;350;15.97;35658.40
1725876307.348;350;15.97;35658.40
1725876307.399;350;17.85;39958.07
1725876307.449;350;17.84;39935.46
1725876307.499;350;17.84;39935.46
1725876307.549;350;17.84;39935.46
1725876307.598;350;17.57;39312.07
1725876307.649;350;18.01;40309.87
1725876307.699;350;18.01;40309.87
1725876307.749;350;17.06;38149.60
1725876307.799;350;17.10;38254.93
1725876307.849;350;17.10;38254.93
1725876307.899;350;17.10;38254.93
1725876307.949;350;18.11;40553.60
1725876307.999;350;17.73;39676.87
1725876308.049;350;17.73;39676.87
1725876308.099;350;18.74;41980.33
1725876308.149;350;18.61;41680.13
1725876308.198;350;18.56;41580.00
1725876308.250;350;18.56;41580.00
1725876308.299;350;18.56;41580.00
1725876308.349;350;16.96;37923.20
1725876308.399;350;19.07;42739.13
1725876308.449;350;19.07;42739.13
1725876308.499;350;19.06;42715.20
1725876308.550;350;19.04;42666.27
1725876308.599;350;17.51;39182.60
1725876308.650;350;17.51;39182.60
1725876308.700;350;15.93;35568.80
1725876308.750;350;17.64;39479.60
1725876308.800;350;17.64;39479.60
1725876308.850;350;17.64;39479.60
1725876308.899;350;16.95;37892.40
1725876308.950;350;16.95;37892.40
1725876309.000;350;16.95;37892.40
1725876309.049;350;17.31;38715.60
1725876309.099;350;17.31;38715.60
1725876309.149;350;17.31;38715.60
1725876309.201;350;16.86;37698.46
1725876309.250;350;17.77;39764.73
1725876309.300;350;17.77;39764.73
1725876309.351;350;17.77;39764.73
1725876309.402;350;18.39;41177.60
1725876309.452;350;18.57;41604.67
1725876309.503;350;18.57;41604.67
1725876309.553;350;18.57;41604.67
1725876309.603;350;18.79;42103.07
1725876309.652;350;18.79;42103.07
1725876309.703;350;18.79;42103.07
1725876309.752;350;19.86;44536.67
1725876309.803;350;19.46;43632.80
1725876309.852;350;19.46;43632.80
1725876309.903;350;19.46;43632.80
1725876309.952;350;18.64;41750.93
1725876310.003;350;18.77;42052.93
1725876310.052;350;18.77;42052.93
1725876310.103;350;18.77;42052.93
1725876310.154;350;19.12;42843.87
1725876310.204;350;18.53;41512.54
1725876310.254;350;18.53;41512.54
1725876310.304;350;18.53;41512.54
1725876310.354;350;17.96;40203.46
1725876310.404;350;19.01;42593.73
1725876310.454;350;19.01;42593.73
1725876310.504;350;19.17;42964.93
1725876310.555;350;16.68;37292.67
1725876310.605;350;17.61;39408.13
1725876310.654;350;17.61;39408.13
1725876310.705;350;17.81;39875.46
1725876310.755;350;17.61;39412.54
1725876310.806;350;17.34;38797.46
1725876310.855;350;17.34;38797.46
1725876310.906;350;18.95;42474.27
1725876310.956;350;18.23;40825.13
1725876322.558;350;16.73;37405.46
1725876322.608;350;16.73;37405.46
1725876322.658;350;16.73;37405.46
1725876322.708;350;17.39;38907.46
1725876322.758;350;18.14;40614.40
1725876322.809;350;18.14;40614.40
1725876322.858;350;18.14;40614.40
1725876322.908;350;18.10;40514.67
1725876322.959;350;19.33;43336.67
1725876323.008;350;19.33;43336.67
1725876323.060;350;19.33;43336.67
1725876323.109;350;18.19;40731.07
1725876323.159;350;19.11;42834.87
1725876323.209;350;19.11;42834.87
1725876323.259;350;19.11;42834.87
1725876323.310;350;16.41;36662.40
1725876323.359;350;18.02;40354.00
1725876323.411;350;18.02;40354.00
1725876323.461;350;18.02;40354.00
1725876323.512;350;15.72;35091.46
1725876323.562;350;15.72;35091.46
1725876323.612;350;15.72;35091.46
1725876323.662;350;17.82;39880.67
1725876323.711;350;17.98;40248.67
1725876323.762;350;17.98;40248.67
1725876323.812;350;17.98;40248.67
1725876323.862;350;19.17;42974.27
1725876323.912;350;19.25;43141.20
1725876323.963;350;19.25;43141.20
1725876324.014;350;16.61;37128.67
1725876324.064;350;18.10;40514.54
1725876324.114;350;18.10;40514.54
1725876324.165;350;18.10;40514.54
1725876324.214;350;17.82;39886.67
1725876324.264;350;18.30;40987.54
1725876324.314;350;18.30;40987.54
1725876324.364;350;18.30;40987.54
1725876324.414;350;18.25;40869.54
1725876324.466;350;18.25;40869.54
1725876324.515;350;18.25;40869.54
1725876324.566;350;18.25;40869.54
1725876324.616;350;18.32;41017.60
1725876324.665;350;18.32;41017.60
1725876324.717;350;18.32;41017.60
1725876324.767;350;18.22;40800.80
1725876324.817;350;18.75;42018.00
1725876324.866;350;18.75;42018.00
1725876324.916;350;18.75;42018.00
1725876324.966;350;17.48;39121.20
1725876325.017;350;18.15;40630.93
1725876325.067;350;18.15;40630.93
1725876325.117;350;18.15;40630.93
1725876325.167;350;17.93;40129.07
1725876325.217;350;19.15;42927.73
1725876325.268;350;19.15;42927.73
1725876325.318;350;19.15;42927.73
1725876325.368;350;18.80;42120.93
1725876325.419;350;18.09;40504.20
1725876325.469;350;18.09;40504.20
1725876325.518;350;18.09;40504.20
1725876325.568;350;18.17;40692.80
1725876325.618;350;18.17;40692.80
1725876325.668;350;18.17;40692.80
1725876325.718;350;18.51;41450.54
1725876325.769;350;18.51;41450.54
1725876325.819;350;18.51;41450.54
1725876325.869;350;19.23;43101.80
1725876325.919;350;18.39;41185.20
1725876325.969;350;18.39;41185.20
1725876326.020;350;18.39;41185.20
1725876326.069;350;18.59;41644.80
1725876326.119;350;17.75;39726.40
1725876326.169;350;17.75;39726.40
1725876326.220;350;17.75;39726.40
1725876326.270;350;20.12;45138.54
1725876326.319;350;20.12;45138.54
1725876326.370;350;20.12;45138.54
1725876326.419;350;18.80;42128.00
1725876326.470;350;17.92;40109.33
1725876326.521;350;17.92;40109.33
1725876326.570;350;17.92;40109.33
1725876326.621;350;17.86;39983.93
1725876326.671;350;19.02;42624.67
1725876326.721;350;19.02;42624.67
1725876326.770;350;19.02;42624.67
1725876326.822;350;17.60;39374.80
1725876338.122;350;15.65;34938.00
1725876338.171;350;15.65;34938.00
1725876338.222;350;15.65;34938.00
1725876338.273;350;17.88;40026.54
1725876338.323;350;17.88;40026.54
1725876338.373;350;17.88;40026.54
1725876338.424;350;18.01;40328.67
1725876338.474;350;17.91;40088.67
1725876338.523;350;17.91;40088.67
1725876338.573;350;17.51;39180.60
1725876338.623;350;18.47;41363.87
1725876338.673;350;18.47;41363.87
1725876338.723;350;18.47;41363.87
1725876338.773;350;18.32;41018.54
1725876338.823;350;18.86;42249.67
1725876338.873;350;18.86;42249.67
1725876338.923;350;18.86;42249.67
1725876338.973;350;19.12;42843.54
1725876339.023;350;19.40;43496.67
1725876339.074;350;19.40;43496.67
1725876339.124;350;19.40;43496.67
1725876339.173;350;18.29;40950.33
1725876339.223;350;18.18;40714.67
1725876339.273;350;18.18;40714.67
1725876339.323;350;18.18;40714.67
1725876339.373;350;18.12;40561.46
1725876339.423;350;18.29;40958.13
1725876339.474;350;18.29;40958.13
1725876339.524;350;17.41;38952.27
1725876339.574;350;19.22;43071.73
1725876339.624;350;19.22;43071.73
1725876339.674;350;19.22;43071.73
1725876339.724;350;18.68;41844.80
1725876339.774;350;16.92;37844.54
1725876339.824;350;16.92;37844.54
1725876339.874;350;16.92;37844.54
1725876339.926;350;17.85;39949.20
1725876339.975;350;19.36;43394.80
1725876340.025;350;19.36;43394.80
1725876340.075;350;19.36;43394.80
1725876340.124;350;17.98;40241.33
1725876340.175;350;16.95;37906.93
1725876340.225;350;16.95;37906.93
1725876340.276;350;16.95;37906.93
1725876340.325;350;18.41;41238.13
1725876340.376;350;18.73;41974.60
1725876340.425;350;18.73;41974.60
1725876340.477;350;18.73;41974.60
1725876340.526;350;19.35;43376.33
1725876340.577;350;19.35;43388.80
1725876340.626;350;19.35;43388.80
1725876340.676;350;19.35;43388.80
1725876340.726;350;18.36;41113.73
1725876340.776;350;19.46;43630.93
1725876340.828;350;19.46;43630.93
1725876340.878;350;19.46;43630.93
1725876340.928;350;18.53;41498.54
1725876340.978;350;18.90;42356.93
1725876341.028;350;18.90;42356.93
1725876341.078;350;18.90;42356.93
1725876341.128;350;18.56;41581.07
1725876341.178;350;19.52;43776.67
1725876341.228;350;19.52;43776.67
1725876341.278;350;19.52;43776.67
1725876341.328;350;18.82;42172.13
1725876341.378;350;18.17;40682.67
1725876341.428;350;18.17;40682.67
1725876341.479;350;18.17;40682.67
1725876341.529;350;18.57;41601.60
1725876341.578;350;18.71;41926.67
1725876341.630;350;18.71;41926.67
1725876341.680;350;18.71;41926.67
1725876341.729;350;17.42;38964.93
1725876341.781;350;17.87;40011.46
1725876341.831;350;17.87;40011.46
1725876341.881;350;17.87;40011.46
1725876341.931;350;17.61;39405.13
1725876341.982;350;17.76;39761.33
1725876342.032;350;17.76;39761.33
1725876342.082;350;17.76;39761.33
1725876342.132;350;18.27;40915.60
1725876342.181;350;18.27;40915.60
1725876342.231;350;18.27;40915.60
1725876342.282;350;20.27;45466.67
1725876342.331;350;18.67;41816.67
1725876342.382;350;18.67;41816.67
1725876342.432;350;18.67;41816.67
1725876342.483;350;15.71;35083.13
1725876342.533;350;17.83;39900.13
1725876342.582;350;17.83;39900.13
1725876342.632;350;17.83;39900.13
1725876342.682;350;19.37;43420.00
1725876342.732;350;18.34;41066.67
1725876342.783;350;18.34;41066.67
1725876342.833;350;18.34;41066.67
1725876342.883;350;18.82;42164.40
1725876342.935;350;18.48;41395.33
1725876342.985;350;18.48;41395.33
1725876343.034;350;18.48;41395.33
1725876482.560;91;10.00;34963.07
1725876482.610;91;10.00;34963.07
1725876482.661;91;10.00;34963.07
1725876482.711;90;10.00;35092.93
1725876482.760;90;10.00;35092.93
1725876482.812;90;10.00;35092.93
1725876482.861;66;10.00;39284.00
1725876482.912;58;10.00;40710.80
1725876482.962;58;10.00;40710.80
1725876483.012;58;10.00;40710.80
1725876483.062;60;10.00;40256.27
1725876483.112;71;10.00;38310.93
1725876483.164;71;10.00;38310.93
1725876483.213;75;10.00;37727.73
1725876483.263;68;10.00;38933.33
1725876483.313;89;10.00;35231.07
1725876483.363;89;10.00;35231.07
1725876483.413;89;10.00;35231.07
1725876483.464;55;10.00;41092.13
1725876483.513;75;10.00;37776.00
1725876483.563;75;10.00;37776.00
1725876483.613;75;10.00;37776.00
1725876483.665;66;10.00;39216.13
1725876483.713;79;10.00;36930.80
1725876483.763;79;10.00;36930.80
1725876483.814;79;10.00;36930.80
1725876483.864;55;10.00;41246.93
1725876483.914;50;10.00;42002.40
1725876483.964;50;10.00;42002.40
1725876484.014;85;10.00;36045.87
1725876484.064;85;10.00;35948.00
1725876484.113;85;10.00;35948.00
1725876484.164;85;10.00;35948.00
1725876484.214;62;10.00;40032.40
1725876484.264;49;10.00;42258.40
1725876484.314;49;10.00;42258.40
1725876484.364;49;10.00;42258.40
1725876484.414;79;10.00;36931.07
1725876484.464;79;10.00;36931.07
1725876484.514;79;10.00;36931.07
1725876484.564;78;10.00;37220.27
1725876484.614;75;10.00;37715.46
1725876484.664;75;10.00;37715.46
1725876484.713;68;10.00;38841.73
1725876484.765;50;10.00;42032.67
1725876484.816;50;10.00;42032.67
1725876484.870;50;10.00;42032.67
1725876484.917;57;10.00;40898.27
1725876484.967;72;10.00;38295.33
1725876485.016;91;10.00;34942.54
1725876485.066;91;10.00;34942.54
1725876485.118;66;10.00;39259.07
1725876485.168;78;10.00;37261.80
1725876485.217;84;10.00;36226.46
1725876485.268;84;10.00;36226.46
1725876485.318;80;10.00;36854.93
1725876485.368;88;10.00;35480.27
1725876485.418;88;10.00;35480.27
1725876485.468;88;10.00;35480.27
1725876485.518;79;10.00;36949.20
1725876485.568;79;10.00;36949.20
1725876485.618;79;10.00;36949.20
1725876485.668;79;10.00;36949.20
1725876485.718;54;10.00;41325.87
1725876485.768;54;10.00;41325.87
1725876485.818;54;10.00;41325.87
1725876485.869;69;10.00;38658.93
1725876485.918;77;10.00;37357.40
1725876485.969;77;10.00;37357.40
1725876486.019;77;10.00;37357.40
1725876486.070;60;10.00;40351.87
1725876486.120;58;10.00;40683.60
1725876486.170;72;10.00;38299.60
1725876486.220;72;10.00;38299.60
1725876486.270;72;10.00;38299.60
1725876486.321;63;10.00;39865.00
1725876486.371;66;10.00;39256.73
1725876486.421;66;10.00;39256.73
1725876486.471;66;10.00;39256.73
1725876486.520;64;10.00;39579.20
1725876486.570;70;10.00;38629.87
1725876486.621;89;10.00;35274.54
1725876486.672;89;10.00;35274.54
1725876486.721;65;10.00;39404.13
1725876486.772;72;10.00;38273.07
1725876486.821;71;10.00;38345.33
1725876486.871;71;10.00;38345.33
1725876486.922;47;10.00;42624.13
1725876486.972;88;10.00;35492.60
1725876487.023;60;10.00;40274.67
1725876487.072;60;10.00;40274.67
1725876487.123;79;10.00;37011.93
1725876498.873;73;10.00;38085.20
1725876498.923;73;10.00;38025.73
1725876498.973;73;10.00;38025.73
1725876499.024;70;10.00;38577.20
1725876499.074;81;10.00;36718.54
1725876499.124;81;10.00;36718.54
1725876499.173;90;10.00;35036.54
1725876499.224;90;10.00;35036.54
1725876499.273;90;10.00;35036.54
1725876499.323;48;10.00;42324.54
1725876499.374;81;10.00;36585.87
1725876499.424;81;10.00;36585.87
1725876499.474;81;10.00;36585.87
1725876499.526;77;10.00;37391.87
1725876499.578;77;10.00;37413.46
1725876499.626;81;10.00;36699.07
1725876499.676;81;10.00;36699.07
1725876499.727;83;10.00;36257.60
1725876499.777;76;10.00;37448.00
1725876499.826;82;10.00;36454.80
1725876499.877;82;10.00;36454.80
1725876499.927;82;10.00;36454.80
1725876499.977;77;10.00;37430.67
1725876500.027;80;10.00;36862.13
1725876500.077;80;10.00;36862.13
1725876500.127;80;10.00;36862.13
1725876500.177;68;10.00;38856.40
1725876500.227;54;10.00;41385.87
1725876500.277;54;10.00;41385.87
1725876500.327;54;10.00;41385.87
1725876500.377;75;10.00;37769.33
1725876500.428;78;10.00;37122.80
1725876500.477;78;10.00;37122.80
1725876500.527;78;10.00;37122.80
1725876500.577;52;10.00;41605.07
1725876500.628;77;10.00;37289.46
1725876500.678;77;10.00;37289.46
1725876500.728;77;10.00;37289.46
1725876500.829;64;10.00;39655.46
1725876500.879;64;10.00;39655.46
1725876500.928;64;10.00;39655.46
1725876500.979;72;10.00;38228.67
1725876501.028;42;10.00;43496.13
1725876501.078;42;10.00;43496.13
1725876501.129;59;10.00;40543.73
1725876501.180;81;10.00;36668.54
1725876501.229;71;10.00;38379.07
1725876501.279;71;10.00;38379.07
1725876501.329;73;10.00;38067.00
1725876501.380;73;10.00;38113.20
1725876501.429;73;10.00;38113.20
1725876501.479;73;10.00;38113.20
1725876501.529;67;10.00;39047.87
1725876501.729;49;10.00;42154.40
1725876501.782;63;10.00;39775.33
1725876501.831;82;10.00;36498.27
1725876501.881;82;10.00;36498.27
1725876501.930;82;10.00;36498.27
1725876501.981;63;10.00;39784.80
1725876502.031;55;10.00;41151.46
1725876502.081;55;10.00;41151.46
1725876502.131;55;10.00;41151.46
1725876502.181;72;10.00;38297.20
1725876502.231;60;10.00;40322.54
1725876502.281;60;10.00;40322.54
1725876502.331;60;10.00;40322.54
1725876502.381;67;10.00;39029.87
1725876502.432;46;10.00;42648.27
1725876502.482;46;10.00;42648.27
1725876502.533;67;10.00;39103.20
1725876502.583;74;10.00;37943.60
1725876502.633;71;10.00;38476.93
1725876502.683;71;10.00;38476.93
1725876502.734;60;10.00;40316.00
1725876502.784;85;10.00;35886.00
1725876502.835;77;10.00;37304.13
1725876502.885;77;10.00;37304.13
1725876502.935;77;10.00;37304.13
1725876502.985;52;10.00;41695.33
1725876503.036;73;10.00;38092.54
1725876503.086;73;10.00;38092.54
1725876503.136;87;10.00;35626.67
1725876503.187;88;10.00;35374.13
1725876503.338;83;10.00;36254.00
1725876503.388;84;10.00;36134.27
1725876503.438;84;10.00;36134.27
1725876503.488;84;10.00;36134.27
1725876503.537;63;10.00;39858.80
1725876514.814;88;10.00;35375.73
1725876514.864;88;10.00;35375.73
1725876514.915;88;10.00;35508.80
1725876514.965;55;10.00;41086.46
1725876515.014;55;10.00;41086.46
1725876515.065;55;10.00;41086.46
1725876515.114;56;10.00;40985.46
1725876515.165;56;10.00;40985.46
1725876515.215;56;10.00;40985.46
1725876515.266;72;10.00;38230.80
1725876515.315;61;10.00;40158.40
1725876515.365;61;10.00;40158.40
1725876515.417;61;10.00;40158.40
1725876515.467;90;10.00;35150.67
1725876515.517;59;10.00;40539.33
1725876515.567;59;10.00;40539.33
1725876515.617;59;10.00;40539.33
1725876515.667;51;10.00;41783.20
1725876515.717;60;10.00;40225.20
1725876515.766;60;10.00;40225.20
1725876515.818;60;10.00;40225.20
1725876515.868;62;10.00;39909.07
1725876515.918;84;10.00;36214.27
1725876515.968;84;10.00;36214.27
1725876516.018;84;10.00;36214.27
1725876516.068;71;10.00;38359.60
1725876516.118;53;10.00;41514.13
1725876516.168;53;10.00;41514.13
1725876516.218;53;10.00;41514.13
1725876516.268;76;10.00;37482.60
1725876516.318;78;10.00;37235.87
1725876516.368;78;10.00;37235.87
1725876516.418;78;10.00;37235.87
1725876516.468;73;10.00;38019.93
1725876516.518;67;10.00;39022.54
1725876516.568;67;10.00;39022.54
1725876516.618;67;10.00;39022.54
1725876516.668;85;10.00;35890.27
1725876516.718;82;10.00;36487.60
1725876516.768;81;10.00;36659.46
1725876516.818;81;10.00;36659.46
1725876516.868;85;10.00;36042.40
1725876516.918;49;10.00;42156.00
1725876516.968;49;10.00;42156.00
1725876517.018;49;10.00;42156.00
1725876517.068;58;10.00;40697.07
1725876517.118;77;10.00;37298.27
1725876517.168;77;10.00;37298.27
1725876517.218;77;10.00;37298.27
1725876517.268;48;10.00;42340.00
1725876517.318;57;10.00;40895.80
1725876517.369;57;10.00;40895.80
1725876517.419;50;10.00;42090.13
1725876517.468;88;10.00;35439.46
1725876517.520;88;10.00;35439.46
1725876517.570;88;10.00;35439.46
1725876517.620;47;10.00;42594.87
1725876517.670;47;10.00;42594.87
1725876517.720;77;10.00;37401.87
1725876517.770;64;10.00;39544.54
1725876517.819;64;10.00;39544.54
1725876517.869;64;10.00;39544.54
1725876517.921;88;10.00;35398.67
1725876517.971;88;10.00;35398.67
1725876518.020;88;10.00;35398.67
1725876518.070;81;10.00;36607.33
1725876518.121;79;10.00;37093.33
1725876518.171;79;10.00;37093.33
1725876518.222;79;10.00;37093.33
1725876518.272;80;10.00;36902.67
1725876518.322;67;10.00;39160.00
1725876518.372;67;10.00;39160.00
1725876518.422;67;10.00;39160.00
1725876518.472;67;10.00;39160.00
1725876518.522;88;10.00;35470.67
1725876518.572;70;10.00;38485.80
1725876518.622;70;10.00;38485.80
1725876518.672;57;10.00;40752.87
1725876518.722;75;10.00;37770.67
1725876518.772;75;10.00;37770.67
1725876518.823;75;10.00;37770.67
1725876518.873;84;10.00;36078.40
1725876518.923;71;10.00;38357.60
1725876518.973;71;10.00;38357.60
1725876519.022;71;10.00;38357.60
1725876519.072;88;10.00;35482.67
1725876519.122;83;10.00;36280.67
1725876519.173;83;10.00;36280.67
1725876519.223;74;10.00;37854.20
1725876519.322;81;10.00;36633.73
1725876519.373;81;10.00;36633.73
1725876519.422;81;10.00;36633.73
1725876625.059;200;16.21;36214.67
1725876625.109;200;16.12;35997.46
1725876625.159;200;16.12;35997.46
1725876625.209;200;16.12;35997.46
1725876625.259;200;19.19;43017.46
1725876625.309;200;19.19;43017.46
1725876625.359;200;19.19;43017.46
1725876625.409;200;18.92;42407.46
1725876625.459;200;19.08;42770.60
1725876625.509;200;19.08;42770.60
1725876625.559;200;19.39;43477.20
1725876625.609;200;19.14;42896.93
1725876625.659;200;19.14;42896.93
1725876625.709;200;19.14;42896.93
1725876625.759;200;19.23;43106.20
1725876625.810;200;17.89;40036.13
1725876625.860;200;17.51;39181.87
1725876625.910;200;17.51;39181.87
1725876625.961;200;17.51;39181.87
1725876626.011;200;18.90;42345.73
1725876626.060;200;18.25;40871.46
1725876626.111;200;18.25;40871.46
1725876626.162;200;18.25;40871.46
1725876626.212;200;17.61;39401.60
1725876626.263;200;18.64;41750.60
1725876626.312;200;18.64;41750.60
1725876626.363;200;18.64;41750.60
1725876626.413;200;16.44;36737.87
1725876626.463;200;16.49;36846.67
1725876626.513;200;16.49;36846.67
1725876626.564;200;19.09;42788.27
1725876626.613;200;18.29;40958.93
1725876626.664;200;18.53;41513.73
1725876626.713;200;18.53;41513.73
1725876626.764;200;17.85;39958.67
1725876626.814;200;17.24;38560.46
1725876626.865;200;16.70;37326.60
1725876626.915;200;16.70;37326.60
1725876626.965;200;18.78;42073.07
1725876627.015;200;18.10;40524.13
1725876627.064;200;17.47;39090.27
1725876627.115;200;17.47;39090.27
1725876627.164;200;17.15;38354.67
1725876627.215;200;17.94;40156.13
1725876627.265;200;17.53;39218.54
1725876627.315;200;17.53;39218.54
1725876627.366;200;17.51;39173.73
1725876627.415;200;18.82;42175.80
1725876627.465;200;16.97;37945.07
1725876627.515;200;16.97;37945.07
1725876627.565;200;17.71;39634.13
1725876627.616;200;17.55;39265.20
1725876627.665;200;17.23;38541.33
1725876627.716;200;17.23;38541.33
1725876627.765;200;18.26;40894.27
1725876627.816;200;18.30;40980.80
1725876627.866;200;18.30;40980.80
1725876627.916;200;18.30;40980.80
1725876627.966;200;17.10;38242.54
1725876628.016;200;19.18;42986.40
1725876628.066;200;19.18;42986.40
1725876628.116;200;19.18;42986.40
1725876628.166;200;17.96;40199.07
1725876628.216;200;17.96;40199.07
1725876628.266;200;17.96;40199.07
1725876628.317;200;17.96;40199.07
1725876628.366;200;17.60;39391.33
1725876628.417;200;18.08;40477.60
1725876628.467;200;18.08;40477.60
1725876628.517;200;18.08;40477.60
1725876628.567;200;18.16;40671.73
1725876628.617;200;16.52;36927.33
1725876628.666;200;16.52;36927.33
1725876628.718;200;16.52;36927.33
1725876628.768;200;19.15;42911.73
1725876628.818;200;19.37;43416.40
1725876628.868;200;19.37;43416.40
1725876628.918;200;19.37;43416.40
1725876628.968;200;17.99;40285.87
1725876629.018;200;18.11;40540.73
1725876629.068;200;18.11;40540.73
1725876629.118;200;18.11;40540.73
1725876629.168;200;18.17;40690.33
1725876629.218;200;19.30;43255.07
1725876629.268;200;19.30;43255.07
1725876629.318;200;19.30;43255.07
1725876629.368;200;18.90;42360.13
1725876629.418;200;18.74;41975.07
1725876629.468;200;18.74;41975.07
1725876629.518;200;18.74;41975.07
1725876629.568;200;17.54;39259.46
1725876629.618;200;19.42;43540.20
1725876629.668;200;16.61;37116.87
1725876629.718;200;16.61;37116.87
1725876629.768;200;16.61;37116.87
1725876629.818;200;18.96;42477.93
1725876641.378;200;16.12;35998.54
1725876641.429;200;16.12;35998.54
1725876641.479;200;16.12;35998.54
1725876641.529;200;17.69;39585.20
1725876641.579;200;18.22;40791.20
1725876641.629;200;18.22;40791.20
1725876641.679;200;18.58;41627.07
1725876641.729;200;16.75;37451.46
1725876641.779;200;17.17;38399.27
1725876641.829;200;17.17;38399.27
1725876641.878;200;17.57;39321.27
1725876641.928;200;18.99;42559.20
1725876641.979;200;17.59;39353.33
1725876642.029;200;17.59;39353.33
1725876642.079;200;17.59;39353.33
1725876642.128;200;16.14;36048.13
1725876642.179;200;17.22;38528.54
1725876642.229;200;17.22;38528.54
1725876642.279;200;17.22;38528.54
1725876642.379;200;17.32;38743.60
1725876642.429;200;17.32;38743.60
1725876642.479;200;16.47;36803.00
1725876642.529;200;16.18;36140.93
1725876642.578;200;18.35;41088.67
1725876642.629;200;18.35;41088.67
1725876642.679;200;18.12;40560.13
1725876642.729;200;19.25;43140.67
1725876642.779;200;19.25;43140.67
1725876642.829;200;19.25;43140.67
1725876642.879;200;18.76;42022.67
1725876642.929;200;16.73;37405.60
1725876642.979;200;16.73;37405.60
1725876643.029;200;16.73;37405.60
1725876643.079;200;18.86;42258.87
1725876643.129;200;18.80;42117.54
1725876643.179;200;18.80;42117.54
1725876643.229;200;18.80;42117.54
1725876643.279;200;18.30;40987.93
1725876643.329;200;16.93;37855.60
1725876643.379;200;16.93;37855.60
1725876643.429;200;16.93;37855.60
1725876643.479;200;17.46;39069.27
1725876643.529;200;19.14;42894.40
1725876643.579;200;18.02;40339.60
1725876643.629;200;18.02;40339.60
1725876643.679;200;18.31;41009.93
1725876643.729;200;17.92;40110.27
1725876643.779;200;17.61;39400.40
1725876643.830;200;17.61;39400.40
1725876643.879;200;17.02;38063.13
1725876643.932;200;18.41;41243.54
1725876643.979;200;18.41;41243.54
1725876644.029;200;18.41;41243.54
1725876644.079;200;17.53;39236.40
1725876644.129;200;17.61;39410.13
1725876644.179;200;17.61;39410.13
1725876644.229;200;17.61;39410.13
1725876644.279;200;16.99;37993.33
1725876644.331;200;17.29;38683.46
1725876644.380;200;17.29;38683.46
1725876644.430;200;17.24;38561.33
1725876644.480;200;18.31;41004.93
1725876644.531;200;18.31;41004.93
1725876644.580;200;18.31;41004.93
1725876644.631;200;18.32;41032.00
1725876644.682;200;17.04;38099.40
1725876644.731;200;17.04;38099.40
1725876644.782;200;17.04;38099.40
1725876644.833;200;16.87;37724.40
1725876644.883;200;16.87;37724.40
1725876644.933;200;16.87;37724.40
1725876644.983;200;16.88;37741.87
1725876645.034;200;17.94;40165.87
1725876645.084;200;18.99;42558.13
1725876645.134;200;18.99;42558.13
1725876645.184;200;18.99;42558.13
1725876645.235;200;18.45;41332.80
1725876645.285;200;17.86;39988.40
1725876645.335;200;17.86;39988.40
1725876645.385;200;17.86;39988.40
1725876645.436;200;18.79;42099.20
1725876645.486;200;19.24;43132.27
1725876645.536;200;19.24;43132.27
1725876645.586;200;19.30;43265.07
1725876645.636;200;18.45;41325.20
1725876645.686;200;19.50;43714.67
1725876645.738;200;19.50;43714.67
1725876645.788;200;19.39;43466.13
1725876645.838;200;19.57;43881.80
1725876656.988;200;16.15;36075.87
1725876657.038;200;15.71;35062.13
1725876657.088;200;15.71;35062.13
1725876657.138;200;15.71;35062.13
1725876657.238;200;19.09;42795.07
1725876657.288;200;19.09;42795.07
1725876657.338;200;19.09;42795.07
1725876657.388;200;17.92;40110.27
1725876657.438;200;19.19;43016.40
1725876657.488;200;19.19;43016.40
1725876657.539;200;18.68;41858.93
1725876657.588;200;17.92;40110.27
1725876657.639;200;17.92;40110.27
1725876657.689;200;17.92;40110.27
1725876657.739;200;15.75;35155.20
1725876657.789;200;18.93;42409.20
1725876657.839;200;18.93;42409.20
1725876657.889;200;18.99;42558.93
1725876657.939;200;17.44;39021.27
1725876657.988;200;16.16;36093.20
1725876658.039;200;16.16;36093.20
1725876658.089;200;17.68;39557.73
1725876658.139;200;18.88;42298.27
1725876658.189;200;18.28;40946.87
1725876658.239;200;18.28;40946.87
1725876658.289;200;17.39;38917.20
1725876658.339;200;19.14;42900.27
1725876658.389;200;18.52;41482.00
1725876658.439;200;18.52;41482.00
1725876658.489;200;18.52;41482.00
1725876658.539;200;19.42;43540.27
1725876658.589;200;18.52;41486.54
1725876658.639;200;18.52;41486.54
1725876658.689;200;18.52;41486.54
1725876658.739;200;17.89;40039.07
1725876658.789;200;17.24;38557.60
1725876658.839;200;17.24;38557.60
1725876658.890;200;17.24;38557.60
1725876658.940;200;19.10;42797.93
1725876658.990;200;20.05;44980.73
1725876659.040;200;20.05;44980.73
1725876659.090;200;20.44;45876.00
1725876659.140;200;18.62;41711.60
1725876659.190;200;19.51;43735.27
1725876659.241;200;19.51;43735.27
1725876659.290;200;17.67;39543.07
1725876659.341;200;18.14;40617.20
1725876659.390;200;18.14;40617.20
1725876659.440;200;18.14;40617.20
1725876659.490;200;17.06;38160.93
1725876659.541;200;18.68;41854.87
1725876659.591;200;18.68;41854.87
1725876659.640;200;18.68;41854.87
1725876659.692;200;17.01;38031.87
1725876659.742;200;18.58;41625.33
1725876659.791;200;18.58;41625.33
1725876659.841;200;18.58;41625.33
1725876659.892;200;18.05;40405.07
1725876659.943;200;18.05;40405.07
1725876659.993;200;18.05;40405.07
1725876660.043;200;18.05;40405.07
1725876660.093;200;17.43;38989.87
1725876660.143;200;17.43;38989.87
1725876660.193;200;17.43;38989.87
1725876660.243;200;17.43;38989.87
1725876660.293;200;16.81;37582.93
1725876660.343;200;18.95;42453.93
1725876660.394;200;18.95;42453.93
1725876660.444;200;18.95;42453.93
1725876660.493;200;17.74;39700.40
1725876660.544;200;19.78;44370.00
1725876660.594;200;19.78;44370.00
1725876660.644;200;19.78;44370.00
1725876660.695;200;17.44;39012.93
1725876660.744;200;17.41;38940.13
1725876660.794;200;17.41;38940.13
1725876660.844;200;17.41;38940.13
1725876660.895;200;18.68;41847.46
1725876660.945;200;18.68;41847.46
1725876660.996;200;18.68;41847.46
1725876661.046;200;17.18;38428.60
1725876661.096;200;19.65;44064.13
1725876661.146;200;19.65;44064.13
1725876661.196;200;19.65;44064.13
1725876661.246;200;19.15;42921.33
1725876661.296;200;18.42;41259.07
1725876661.346;200;18.42;41259.07
1725876661.396;200;18.42;41259.07
1725876661.446;200;17.72;39665.33
1725876661.496;200;19.70;44172.00
1725876661.546;200;19.70;44172.00
1725876661.596;200;19.70;44172.00
1725876661.646;200;18.27;40919.60
1725876789.158;87;40.00;35607.20
1725876789.208;87;40.00;35607.20
1725876789.258;87;40.00;35628.27
1725876789.308;70;40.00;38632.54
1725876789.358;70;40.00;38632.54
1725876789.408;70;40.00;38632.54
1725876789.457;71;40.00;38417.46
1725876789.508;51;40.00;41890.46
1725876789.558;51;40.00;41890.46
1725876789.608;51;40.00;41890.46
1725876789.658;75;40.00;37762.93
1725876789.707;81;40.00;36693.46
1725876789.757;79;40.00;36979.46
1725876789.808;79;40.00;36979.46
1725876789.858;82;40.00;36426.27
1725876789.908;79;40.00;36938.67
1725876789.958;59;40.00;40503.33
1725876790.008;59;40.00;40503.33
1725876790.058;42;40.00;43399.20
1725876790.108;42;40.00;43481.46
1725876790.158;82;40.00;36500.27
1725876790.208;82;40.00;36500.27
1725876790.258;78;40.00;37109.73
1725876790.308;83;40.00;36232.13
1725876790.358;89;40.00;35225.40
1725876790.407;89;40.00;35225.40
1725876790.458;86;40.00;35779.20
1725876790.508;76;40.00;37490.67
1725876790.558;76;40.00;37490.67
1725876790.608;76;40.00;37490.67
1725876790.658;44;40.00;43014.40
1725876790.708;47;40.00;42470.67
1725876790.758;47;40.00;42470.67
1725876790.808;47;40.00;42470.67
1725876790.858;56;40.00;40932.13
1725876790.908;59;40.00;40550.73
1725876790.958;59;40.00;40550.73
1725876791.008;59;40.00;40550.73
1725876791.108;58;40.00;40608.13
1725876791.158;58;40.00;40608.13
1725876791.208;58;40.00;40608.13
1725876791.257;76;40.00;37520.73
1725876791.308;70;40.00;38548.67
1725876791.358;70;40.00;38548.67
1725876791.407;70;40.00;38548.67
1725876791.458;70;40.00;38551.87
1725876791.508;63;40.00;39709.60
1725876791.559;63;40.00;39709.60
1725876791.609;63;40.00;39709.60
1725876791.659;66;40.00;39183.73
1725876791.709;52;40.00;41681.93
1725876791.759;52;40.00;41681.93
1725876791.809;52;40.00;41681.93
1725876791.859;81;40.00;36721.60
1725876791.909;74;40.00;37902.40
1725876791.959;79;40.00;37069.20
1725876792.009;79;40.00;37069.20
1725876792.059;79;40.00;37069.20
1725876792.109;71;40.00;38442.60
1725876792.159;39;40.00;43899.07
1725876792.209;39;40.00;43899.07
1725876792.259;39;40.00;43899.07
1725876792.309;77;40.00;37424.54
1725876792.358;75;40.00;37663.20
1725876792.409;75;40.00;37663.20
1725876792.459;75;40.00;37663.20
1725876792.508;60;40.00;40231.20
1725876792.558;71;40.00;38337.07
1725876792.609;71;40.00;38337.07
1725876792.659;71;40.00;38337.07
1725876792.709;47;40.00;42581.20
1725876792.759;49;40.00;42234.27
1725876792.809;49;40.00;42234.27
1725876792.859;49;40.00;42234.27
1725876792.909;74;40.00;37837.80
1725876792.959;53;40.00;41477.33
1725876793.009;53;40.00;41477.33
1725876793.059;47;40.00;42545.87
1725876793.108;52;40.00;41756.93
1725876793.159;45;40.00;42963.87
1725876793.209;45;40.00;42963.87
1725876793.259;74;40.00;37885.60
1725876793.309;64;40.00;39535.87
1725876793.359;64;40.00;39535.87
1725876793.409;64;40.00;39535.87
1725876793.459;88;40.00;35378.13
1725876793.509;60;40.00;40271.07
1725876793.559;60;40.00;40271.07
1725876793.609;60;40.00;40271.07
1725876793.659;68;40.00;38949.60
1725876805.678;75;40.00;37757.60
1725876805.728;90;40.00;35066.46
1725876805.779;90;40.00;35066.46
1725876805.829;90;40.00;35066.46
1725876805.878;60;40.00;40379.27
1725876805.928;43;40.00;43209.87
1725876805.978;43;40.00;43209.87
1725876806.029;43;40.00;43209.87
1725876806.080;49;40.00;42206.00
1725876806.129;49;40.00;42206.00
1725876806.179;49;40.00;42206.00
1725876806.234;80;40.00;36758.46
1725876806.279;74;40.00;37879.87
1725876806.329;74;40.00;37879.87
1725876806.379;74;40.00;37879.87
1725876806.429;48;40.00;42385.73
1725876806.479;53;40.00;41597.33
1725876806.529;53;40.00;41597.33
1725876806.579;53;40.00;41597.33
1725876806.629;42;40.00;43343.20
1725876806.679;57;40.00;40804.13
1725876806.729;57;40.00;40804.13
1725876806.780;57;40.00;40804.13
1725876806.830;85;40.00;36040.93
1725876806.880;85;40.00;36040.93
1725876806.930;85;40.00;36040.93
1725876806.980;78;40.00;37158.13
1725876807.032;76;40.00;37520.13
1725876807.081;84;40.00;36083.73
1725876807.132;84;40.00;36083.73
1725876807.182;83;40.00;36351.73
1725876807.231;73;40.00;38078.54
1725876807.281;75;40.00;37730.27
1725876807.331;75;40.00;37730.27
1725876807.381;75;40.00;37730.27
1725876807.432;84;40.00;36114.54
1725876807.481;44;40.00;43074.67
1725876807.532;44;40.00;43074.67
1725876807.581;44;40.00;43074.67
1725876807.633;50;40.00;42064.27
1725876807.683;43;40.00;43178.27
1725876807.733;43;40.00;43178.27
1725876807.783;73;40.00;38113.07
1725876807.834;84;40.00;36108.80
1725876807.884;84;40.00;36108.80
1725876807.933;84;40.00;36108.80
1725876807.984;67;40.00;39078.40
1725876808.034;67;40.00;39147.60
1725876808.084;67;40.00;39147.60
1725876808.134;84;40.00;36125.00
1725876808.183;83;40.00;36337.87
1725876808.234;83;40.00;36337.87
1725876808.284;83;40.00;36337.87
1725876808.333;73;40.00;37977.87
1725876808.384;67;40.00;39008.80
1725876808.434;67;40.00;39008.80
1725876808.484;78;40.00;37196.07
1725876808.534;39;40.00;43859.87
1725876808.584;39;40.00;43859.87
1725876808.634;39;40.00;43859.87
1725876808.685;40;40.00;43706.40
1725876808.736;69;40.00;38763.73
1725876808.786;69;40.00;38763.73
1725876808.837;69;40.00;38763.73
1725876808.887;62;40.00;39918.40
1725876808.936;65;40.00;39481.20
1725876808.987;65;40.00;39481.20
1725876809.037;65;40.00;39481.20
1725876809.086;81;40.00;36580.87
1725876809.137;55;40.00;41114.40
1725876809.187;65;40.00;39408.40
1725876809.238;65;40.00;39408.40
1725876809.288;65;40.00;39408.40
1725876809.338;87;40.00;35573.20
1725876809.388;61;40.00;40089.33
1725876809.438;61;40.00;40089.33
1725876809.488;61;40.00;40089.33
1725876809.538;82;40.00;36500.93
1725876809.589;70;40.00;38541.46
1725876809.639;70;40.00;38541.46
1725876809.689;78;40.00;37183.13
1725876809.739;69;40.00;38812.67
1725876820.978;77;40.00;37292.54
1725876821.027;77;40.00;37292.54
1725876821.128;64;40.00;39627.87
1725876821.177;64;40.00;39627.87
1725876821.228;64;40.00;39627.87
1725876821.279;64;40.00;39592.13
1725876821.328;53;40.00;41597.80
1725876821.379;53;40.00;41597.80
1725876821.479;88;40.00;35443.46
1725876821.530;88;40.00;35443.46
1725876821.580;88;40.00;35443.46
1725876821.680;70;40.00;38492.67
1725876821.730;70;40.00;38492.67
1725876821.781;88;40.00;35501.20
1725876821.831;90;40.00;35180.67
1725876821.881;90;40.00;35180.67
1725876821.931;90;40.00;35180.67
1725876821.981;83;40.00;36385.33
1725876822.031;60;40.00;40319.40
1725876822.080;60;40.00;40319.40
1725876822.131;60;40.00;40319.40
1725876822.180;80;40.00;36854.13
1725876822.231;36;40.00;44377.80
1725876822.281;36;40.00;44377.80
1725876822.330;36;40.00;44377.80
1725876822.381;51;40.00;41799.87
1725876822.431;54;40.00;41300.46
1725876822.481;54;40.00;41300.46
1725876822.531;89;40.00;35256.67
1725876822.581;82;40.00;36528.54
1725876822.631;82;40.00;36528.54
1725876822.680;83;40.00;36360.87
1725876822.731;85;40.00;36043.87
1725876822.781;85;40.00;36043.87
1725876822.831;85;40.00;36043.87
1725876822.881;80;40.00;36764.60
1725876822.931;44;40.00;43089.33
1725876822.980;44;40.00;43089.33
1725876823.030;44;40.00;43089.33
1725876823.081;53;40.00;41501.87
1725876823.132;74;40.00;37839.20
1725876823.182;82;40.00;36553.20
1725876823.232;82;40.00;36553.20
1725876823.282;79;40.00;36940.54
1725876823.332;43;40.00;43228.07
1725876823.382;80;40.00;36915.60
1725876823.432;80;40.00;36915.60
1725876823.482;77;40.00;37271.46
1725876823.532;73;40.00;38136.54
1725876823.583;79;40.00;37086.27
1725876823.633;79;40.00;37086.27
1725876823.683;77;40.00;37365.73
1725876823.733;73;40.00;38040.27
1725876823.783;61;40.00;40178.93
1725876823.833;61;40.00;40178.93
1725876823.883;43;40.00;43164.93
1725876823.932;44;40.00;43107.33
1725876823.983;44;40.00;43107.33
1725876824.033;44;40.00;43107.33
1725876824.083;56;40.00;41015.33
1725876824.133;56;40.00;41015.33
1725876824.183;56;40.00;41015.33
1725876824.233;61;40.00;40071.20
1725876824.283;57;40.00;40740.27
1725876824.333;57;40.00;40740.27
1725876824.383;57;40.00;40740.27
1725876824.433;78;40.00;37106.20
1725876824.483;78;40.00;37254.80
1725876824.533;78;40.00;37254.80
1725876824.583;68;40.00;38954.93
1725876824.633;75;40.00;37718.40
1725876824.684;79;40.00;36992.93
1725876824.734;79;40.00;36992.93
1725876824.784;69;40.00;38815.73
1725876824.834;64;40.00;39670.07
1725876824.884;59;40.00;40453.40
1725876824.934;59;40.00;40453.40
1725876824.984;72;40.00;38308.54
1725876825.035;57;40.00;40736.87
1725876825.084;90;40.00;35034.60
1725876825.134;90;40.00;35034.60
1725876825.185;90;40.00;35034.60
1725876825.234;81;40.00;36616.13
1725876825.284;45;40.00;42903.60
1725876825.334;45;40.00;42903.60
1725876825.384;45;40.00;42903.60
1725876825.434;64;40.00;39567.46
1725876825.484;74;40.00;37886.27
1725876825.534;74;40.00;37886.27
1725876825.584;74;40.00;37886.27
1725876825.634;34;40.00;44721.00
1725876977.278;50;15.75;35173.20
1725876977.327;50;15.75;35173.20
1725876977.378;50;15.75;35173.20
1725876977.428;50;17.98;40262.27
1725876977.478;50;17.11;38263.33
1725876977.527;50;17.11;38263.33
1725876977.578;50;17.11;38263.33
1725876977.628;50;16.08;35920.13
1725876977.678;50;19.30;43257.46
1725876977.727;50;19.30;43257.46
1725876977.778;50;19.30;43257.46
1725876977.828;50;16.61;37131.73
1725876977.878;50;17.61;39401.20
1725876977.928;50;17.61;39401.20
1725876977.978;50;17.61;39401.20
1725876978.027;50;18.34;41072.40
1725876978.078;50;16.83;37628.40
1725876978.128;50;16.83;37628.40
1725876978.178;50;16.83;37628.40
1725876978.228;50;18.67;41828.40
1725876978.278;50;16.43;36718.87
1725876978.327;50;16.43;36718.87
1725876978.377;50;16.43;36718.87
1725876978.428;50;18.60;41672.93
1725876978.478;50;16.45;36770.27
1725876978.528;50;16.45;36770.27
1725876978.578;50;16.45;36770.27
1725876978.628;50;16.52;36923.73
1725876978.678;50;15.89;35487.07
1725876978.728;50;15.89;35487.07
1725876978.778;50;15.89;35487.07
1725876978.828;50;17.23;38550.80
1725876978.878;50;16.02;35770.80
1725876978.928;50;16.02;35770.80
1725876978.979;50;16.02;35770.80
1725876979.029;50;16.00;35731.07
1725876979.078;50;16.00;35731.07
1725876979.129;50;16.00;35731.07
1725876979.179;50;17.95;40189.87
1725876979.229;50;16.56;37021.60
1725876979.279;50;16.56;37021.60
1725876979.329;50;16.56;37021.60
1725876979.379;50;16.05;35846.13
1725876979.429;50;18.46;41338.87
1725876979.478;50;18.46;41338.87
1725876979.528;50;18.46;41338.87
1725876979.629;50;16.81;37593.33
1725876979.679;50;16.81;37593.33
1725876979.729;50;16.16;36104.93
1725876979.779;50;16.71;37347.07
1725876979.829;50;19.16;42952.13
1725876979.879;50;19.16;42952.13
1725876979.928;50;19.16;42952.13
1725876979.979;50;18.03;40364.40
1725876980.028;50;16.00;35733.93
1725876980.079;50;16.00;35733.93
1725876980.129;50;16.00;35733.93
1725876980.179;50;18.59;41642.73
1725876980.229;50;18.50;41437.73
1725876980.279;50;18.50;41437.73
1725876980.329;50;18.50;41437.73
1725876980.379;50;17.29;38669.73
1725876980.429;50;17.25;38580.40
1725876980.480;50;17.25;38580.40
1725876980.530;50;17.25;38580.40
1725876980.580;50;16.62;37156.40
1725876980.630;50;18.60;41664.80
1725876980.680;50;18.60;41664.80
1725876980.730;50;18.60;41664.80
1725876980.780;50;19.37;43414.00
1725876980.830;50;18.43;41274.80
1725876980.880;50;18.43;41274.80
1725876980.930;50;18.43;41274.80
1725876980.980;50;16.95;37902.93
1725876981.029;50;17.08;38203.93
1725876981.080;50;17.08;38203.93
1725876981.131;50;16.44;36740.40
1725876981.181;50;16.50;36871.80
1725876981.231;50;16.50;36871.80
1725876981.282;50;16.50;36871.80
1725876981.332;50;16.69;37307.60
1725876981.381;50;16.69;37307.60
1725876981.432;50;16.69;37307.60
1725876981.482;50;17.02;38070.27
1725876981.532;50;18.70;41894.27
1725876981.582;50;18.70;41894.27
1725876981.633;50;18.70;41894.27
1725876981.683;50;20.32;45580.27
1725876981.732;50;18.47;41373.40
1725876981.782;50;18.47;41373.40
1725876981.834;50;18.47;41373.40
1725876981.884;50;16.53;36936.00
1725876993.186;50;15.75;35159.60
1725876993.237;50;15.75;35159.60
1725876993.288;50;15.70;35045.20
1725876993.338;50;16.07;35892.40
1725876993.388;50;16.07;35892.40
1725876993.437;50;16.07;35892.40
1725876993.638;50;16.44;36732.67
1725876993.687;50;15.96;35642.80
1725876993.738;50;15.96;35642.80
1725876993.788;50;15.96;35642.80
1725876993.838;50;16.04;35836.27
1725876994.037;50;15.93;35572.54
1725876994.088;50;15.94;35597.20
1725876994.138;50;15.94;35597.20
1725876994.187;50;15.94;35597.20
1725876994.238;50;18.24;40841.73
1725876994.288;50;18.24;40841.73
1725876994.337;50;18.24;40841.73
1725876994.388;50;17.33;38763.60
1725876994.438;50;17.41;38942.00
1725876994.488;50;17.41;38942.00
1725876994.538;50;17.41;38942.00
1725876994.588;50;18.45;41313.46
1725876994.638;50;17.83;39903.46
1725876994.688;50;17.83;39903.46
1725876994.737;50;17.83;39903.46
1725876994.788;50;17.02;38052.67
1725876994.838;50;17.00;38010.73
1725876994.888;50;17.00;38010.73
1725876994.938;50;17.00;38010.73
1725876994.988;50;16.86;37703.87
1725876995.038;50;16.86;37703.87
1725876995.088;50;16.86;37703.87
1725876995.137;50;18.10;40527.73
1725876995.188;50;18.64;41761.33
1725876995.238;50;18.64;41761.33
1725876995.289;50;18.64;41761.33
1725876995.339;50;19.04;42669.80
1725876995.388;50;19.04;42669.80
1725876995.439;50;19.04;42669.80
1725876995.488;50;18.95;42466.67
1725876995.539;50;16.69;37308.67
1725876995.588;50;16.69;37308.67
1725876995.639;50;16.72;37369.73
1725876995.688;50;17.99;40268.27
1725876995.738;50;17.99;40268.27
1725876995.788;50;17.99;40268.27
1725876995.846;50;17.01;38050.00
1725876995.892;50;16.77;37489.60
1725876995.942;50;16.77;37489.60
1725876995.992;50;16.77;37489.60
1725876996.043;50;19.75;44294.40
1725876996.094;50;16.25;36301.33
1725876996.144;50;16.25;36301.33
1725876996.193;50;16.25;36301.33
1725876996.245;50;17.98;40242.67
1725876996.295;50;16.70;37340.13
1725876996.344;50;16.70;37340.13
1725876996.395;50;16.70;37340.13
1725876996.444;50;16.26;36324.40
1725876996.494;50;16.77;37480.27
1725876996.546;50;16.77;37480.27
1725876996.595;50;17.00;38012.27
1725876996.646;50;17.89;40036.40
1725876996.696;50;17.89;40036.40
1725876996.746;50;17.89;40036.40
1725876996.796;50;18.18;40713.60
1725876996.846;50;18.18;40713.60
1725876996.896;50;18.18;40713.60
1725876996.948;50;18.22;40796.00
1725876996.998;50;17.39;38902.80
1725876997.048;50;17.39;38902.80
1725876997.098;50;17.39;38902.80
1725876997.148;50;17.17;38396.00
1725876997.198;50;16.36;36562.27
1725876997.247;50;16.36;36562.27
1725876997.298;50;16.36;36562.27
1725876997.348;50;17.73;39691.73
1725876997.398;50;17.41;38960.54
1725876997.447;50;18.64;41768.93
1725876997.498;50;18.64;41768.93
1725876997.548;50;18.64;41768.93
1725876997.598;50;16.60;37107.87
1725876997.648;50;18.41;41234.00
1725876997.697;50;18.41;41234.00
1725876997.747;50;18.41;41234.00
1725876997.798;50;18.55;41563.07
1725876997.848;50;17.76;39751.07
1725876997.898;50;17.76;39751.07
1725876997.948;50;17.76;39751.07
1725876997.998;50;17.35;38821.33
1725877009.463;50;16.20;36186.07
1725877009.514;50;16.20;36186.07
1725877009.564;50;16.03;35802.54
1725877009.614;50;18.13;40588.00
1725877009.664;50;16.59;37070.20
1725877009.714;50;16.59;37070.20
1725877009.764;50;17.85;39960.54
1725877009.814;50;16.52;36922.93
1725877009.865;50;16.25;36300.67
1725877009.915;50;16.25;36300.67
1725877009.965;50;16.25;36300.67
1725877010.066;50;16.81;37571.20
1725877010.115;50;16.81;37571.20
1725877010.165;50;16.86;37705.07
1725877010.215;50;15.83;35342.00
1725877010.266;50;15.94;35586.40
1725877010.316;50;15.94;35586.40
1725877010.366;50;18.97;42514.93
1725877010.416;50;16.42;36693.27
1725877010.466;50;16.42;36693.27
1725877010.517;50;16.42;36693.27
1725877010.570;50;16.98;37968.46
1725877010.617;50;17.30;38692.87
1725877010.667;50;17.30;38692.87
1725877010.718;50;17.30;38692.87
1725877010.768;50;17.14;38324.13
1725877010.818;50;16.58;37053.60
1725877010.867;50;16.58;37053.60
1725877010.918;50;16.58;37053.60
1725877010.967;50;19.30;43273.33
1725877011.018;50;17.01;38040.00
1725877011.068;50;17.01;38040.00
1725877011.117;50;17.01;38040.00
1725877011.168;50;17.50;39166.54
1725877011.218;50;16.53;36942.13
1725877011.268;50;15.91;35521.73
1725877011.318;50;15.91;35521.73
1725877011.368;50;16.92;37835.40
1725877011.419;50;17.22;38525.46
1725877011.469;50;17.22;38525.46
1725877011.519;50;17.22;38525.46
1725877011.569;50;16.97;37937.20
1725877011.618;50;16.97;37937.20
1725877011.668;50;16.97;37937.20
1725877011.718;50;17.14;38328.40
1725877011.768;50;16.24;36277.46
1725877011.819;50;16.24;36277.46
1725877011.869;50;16.24;36277.46
1725877011.920;50;16.82;37608.80
1725877011.969;50;17.44;39020.54
1725877012.020;50;17.44;39020.54
1725877012.069;50;17.54;39237.73
1725877012.120;50;17.41;38940.93
1725877012.170;50;17.41;38940.93
1725877012.219;50;17.41;38940.93
1725877012.270;50;19.16;42938.67
1725877012.320;50;19.16;42938.67
1725877012.371;50;19.16;42938.67
1725877012.421;50;18.13;40604.27
1725877012.472;50;18.17;40696.40
1725877012.521;50;18.17;40696.40
1725877012.572;50;18.17;40696.40
1725877012.621;50;17.05;38121.60
1725877012.672;50;16.99;37990.67
1725877012.722;50;16.99;37990.67
1725877012.772;50;16.99;37990.67
1725877012.823;50;17.05;38137.20
1725877012.872;50;18.17;40692.67
1725877012.922;50;18.17;40692.67
1725877012.973;50;18.17;40692.67
1725877013.023;50;17.81;39857.20
1725877013.073;50;16.25;36299.60
1725877013.124;50;16.25;36299.60
1725877013.174;50;16.25;36299.60
1725877013.224;50;17.09;38218.46
1725877013.373;50;18.00;40305.73
1725877013.423;50;18.05;40416.80
1725877013.475;50;16.61;37123.46
1725877013.524;50;16.61;37123.46
1725877013.575;50;18.66;41814.00
1725877013.625;50;17.14;38327.20
1725877013.676;50;17.14;38327.20
1725877013.726;50;17.14;38327.20
1725877013.775;50;17.24;38552.40
1725877116.698;500;16.35;36536.33
1725877116.748;500;16.35;36536.33
1725877116.798;500;16.35;36536.33
1725877116.848;500;15.71;35080.00
1725877116.899;500;19.01;42613.54
1725877116.949;500;19.12;42842.87
1725877116.998;500;19.12;42842.87
1725877117.048;500;17.54;39238.00
1725877117.099;500;18.36;41120.40
1725877117.149;500;18.84;42212.80
1725877117.201;500;18.84;42212.80
1725877117.254;500;18.84;42212.80
1725877117.299;500;17.83;39917.87
1725877117.350;500;16.76;37471.33
1725877117.400;500;16.76;37471.33
1725877117.450;500;16.76;37471.33
1725877117.500;500;18.99;42563.67
1725877117.550;500;18.66;41812.54
1725877117.601;500;18.66;41812.54
1725877117.651;500;18.66;41812.54
1725877117.701;500;16.82;37606.80
1725877117.750;500;17.45;39034.13
1725877117.800;500;17.45;39034.13
1725877117.850;500;17.45;39034.13
1725877117.901;500;16.91;37813.60
1725877117.950;500;17.56;39300.13
1725877118.000;500;17.56;39300.13
1725877118.051;500;17.56;39300.13
1725877118.102;500;17.56;39300.13
1725877118.151;500;18.20;40747.20
1725877118.202;500;18.24;40839.46
1725877118.252;500;18.24;40839.46
1725877118.302;500;18.00;40297.60
1725877118.352;500;18.40;41218.40
1725877118.401;500;18.40;41218.40
1725877118.453;500;18.40;41218.40
1725877118.502;500;18.18;40702.00
1725877118.554;500;18.60;41656.00
1725877118.604;500;18.60;41656.00
1725877118.654;500;19.03;42650.73
1725877118.704;500;18.29;40951.33
1725877118.754;500;18.29;40951.33
1725877118.804;500;18.29;40951.33
1725877118.903;500;17.34;38795.60
1725877118.954;500;17.34;38795.60
1725877119.004;500;17.54;39251.27
1725877119.054;500;18.56;41566.40
1725877119.105;500;18.56;41566.40
1725877119.154;500;18.56;41566.40
1725877119.204;500;18.72;41937.60
1725877119.255;500;17.82;39890.54
1725877119.305;500;17.82;39890.54
1725877119.356;500;17.82;39890.54
1725877119.406;500;16.13;36035.54
1725877119.455;500;18.88;42313.60
1725877119.505;500;18.88;42313.60
1725877119.555;500;18.88;42313.60
1725877119.607;500;18.28;40929.00
1725877119.656;500;18.03;40358.93
1725877119.706;500;18.03;40358.93
1725877119.757;500;18.03;40358.93
1725877119.806;500;18.03;40358.93
1725877119.857;500;18.75;42006.87
1725877119.907;500;18.75;42006.87
1725877119.957;500;18.75;42006.87
1725877120.007;500;18.71;41928.00
1725877120.057;500;19.14;42893.20
1725877120.107;500;19.14;42893.20
1725877120.157;500;19.14;42893.20
1725877120.207;500;18.27;40922.27
1725877120.407;500;17.96;40199.87
1725877120.458;500;16.01;35764.33
1725877120.508;500;16.01;35764.33
1725877120.557;500;18.09;40511.73
1725877120.608;500;17.48;39105.60
1725877120.659;500;18.05;40421.93
1725877120.708;500;18.05;40421.93
1725877120.758;500;19.30;43262.13
1725877120.808;500;18.85;42246.80
1725877120.858;500;18.32;41032.93
1725877120.908;500;18.32;41032.93
1725877120.957;500;16.99;37996.13
1725877121.008;500;17.64;39476.73
1725877121.058;500;17.64;39476.73
1725877121.108;500;17.64;39476.73
1725877121.157;500;18.31;41005.60
1725877121.207;500;17.07;38183.07
1725877121.258;500;18.61;41685.87
1725877121.307;500;18.61;41685.87
1725877121.358;500;17.79;39820.80
1725877132.508;500;15.69;35020.67
1725877132.559;500;15.69;35020.67
1725877132.609;500;15.69;35020.67
1725877132.659;500;18.80;42129.73
1725877132.709;500;18.57;41595.20
1725877132.758;500;18.57;41595.20
1725877132.808;500;17.47;39091.07
1725877132.863;500;17.15;38367.87
1725877132.911;500;15.73;35129.46
1725877132.961;500;15.73;35129.46
1725877133.012;500;15.73;35129.46
1725877133.061;500;18.53;41510.93
1725877133.111;500;16.36;36557.60
1725877133.161;500;16.36;36557.60
1725877133.211;500;16.36;36557.60
1725877133.263;500;18.29;40970.13
1725877133.312;500;18.81;42152.80
1725877133.362;500;18.81;42152.80
1725877133.413;500;18.62;41704.13
1725877133.464;500;18.53;41513.46
1725877133.513;500;18.35;41098.40
1725877133.564;500;18.35;41098.40
1725877133.614;500;18.48;41385.67
1725877133.664;500;19.50;43712.40
1725877133.714;500;19.50;43712.40
1725877133.765;500;19.50;43712.40
1725877133.815;500;15.76;35197.07
1725877133.865;500;18.11;40551.33
1725877133.915;500;18.11;40551.33
1725877133.964;500;18.11;40551.33
1725877134.015;500;18.07;40466.87
1725877134.066;500;16.62;37149.73
1725877134.115;500;16.62;37149.73
1725877134.168;500;16.62;37149.73
1725877134.218;500;16.59;37074.54
1725877134.267;500;17.43;39000.27
1725877134.318;500;17.43;39000.27
1725877134.368;500;17.43;39000.27
1725877134.418;500;17.48;39107.20
1725877134.467;500;17.69;39582.46
1725877134.518;500;17.69;39582.46
1725877134.568;500;17.69;39582.46
1725877134.618;500;17.89;40047.20
1725877134.667;500;19.50;43725.33
1725877134.718;500;19.50;43725.33
1725877134.767;500;18.98;42525.33
1725877134.818;500;18.76;42041.33
1725877134.867;500;18.76;42041.33
1725877134.918;500;18.76;42041.33
1725877134.967;500;16.63;37160.80
1725877135.018;500;17.47;39085.73
1725877135.067;500;17.47;39085.73
1725877135.118;500;17.47;39085.73
1725877135.167;500;19.21;43052.13
1725877135.218;500;19.21;43052.13
1725877135.268;500;19.21;43052.13
1725877135.318;500;17.65;39499.13
1725877135.368;500;18.33;41044.27
1725877135.418;500;18.33;41044.27
1725877135.471;500;18.33;41044.27
1725877135.519;500;18.33;41044.27
1725877135.568;500;17.57;39308.80
1725877135.618;500;17.90;40068.13
1725877135.669;500;17.90;40068.13
1725877135.719;500;17.90;40068.13
1725877135.769;500;16.77;37481.20
1725877135.969;500;16.63;37164.00
1725877136.019;500;16.36;36558.93
1725877136.069;500;16.36;36558.93
1725877136.119;500;16.36;36558.93
1725877136.169;500;19.24;43135.54
1725877136.219;500;18.07;40452.93
1725877136.270;500;18.07;40452.93
1725877136.319;500;18.40;41216.67
1725877136.369;500;18.68;41844.13
1725877136.420;500;18.68;41844.13
1725877136.470;500;18.68;41844.13
1725877136.520;500;17.06;38150.40
1725877136.570;500;16.86;37689.20
1725877136.620;500;16.86;37689.20
1725877136.770;500;16.01;35746.40
1725877136.820;500;16.01;35746.40
1725877136.870;500;18.94;42447.54
1725877136.920;500;19.73;44243.20
1725877136.970;500;19.73;44243.20
1725877137.020;500;19.73;44243.20
1725877137.071;500;18.38;41156.00
1725877137.120;500;17.38;38873.87
1725877137.170;500;17.38;38873.87
1725877137.220;500;18.69;41870.13
1725877149.029;500;15.72;35086.80
1725877149.080;500;15.72;35086.80
1725877149.129;500;15.72;35086.80
1725877149.179;500;15.72;35086.80
1725877149.229;500;16.82;37614.67
1725877149.280;500;16.82;37614.67
1725877149.330;500;16.82;37614.67
1725877149.381;500;19.32;43302.13
1725877149.431;500;17.93;40146.40
1725877149.482;500;17.93;40146.40
1725877149.531;500;17.93;40146.40
1725877149.581;500;18.46;41339.00
1725877149.632;500;15.97;35667.20
1725877149.682;500;15.97;35667.20
1725877149.731;500;17.14;38344.00
1725877149.782;500;16.98;37960.93
1725877149.832;500;17.26;38603.60
1725877149.883;500;17.26;38603.60
1725877149.934;500;17.82;39884.80
1725877149.984;500;18.48;41397.87
1725877150.033;500;18.48;41397.87
1725877150.085;500;18.48;41397.87
1725877150.135;500;17.26;38614.54
1725877150.185;500;17.26;38614.54
1725877150.235;500;17.26;38614.54
1725877150.286;500;17.54;39245.54
1725877150.336;500;16.37;36575.33
1725877150.386;500;16.37;36575.33
1725877150.436;500;16.37;36575.33
1725877150.486;500;19.01;42600.87
1725877150.536;500;19.01;42600.87
1725877150.586;500;19.01;42600.87
1725877150.636;500;18.15;40639.20
1725877150.686;500;16.94;37880.40
1725877150.736;500;16.94;37880.40
1725877150.786;500;16.94;37880.40
1725877150.836;500;15.67;34980.93
1725877150.886;500;18.86;42260.46
1725877150.936;500;18.86;42260.46
1725877150.986;500;18.86;42260.46
1725877151.037;500;18.18;40705.60
1725877151.087;500;18.13;40605.07
1725877151.137;500;18.13;40605.07
1725877151.187;500;18.13;40605.07
1725877151.238;500;18.83;42183.60
1725877151.287;500;16.61;37114.80
1725877151.337;500;16.61;37114.80
1725877151.389;500;16.61;37114.80
1725877151.439;500;17.49;39135.87
1725877151.488;500;17.49;39135.87
1725877151.538;500;17.49;39135.87
1725877151.589;500;17.98;40242.80
1725877151.639;500;17.97;40230.40
1725877151.689;500;17.97;40230.40
1725877151.739;500;17.97;40230.40
1725877151.789;500;18.96;42487.46
1725877151.839;500;18.83;42180.67
1725877151.889;500;18.18;40700.33
1725877151.939;500;18.18;40700.33
1725877151.989;500;18.18;40700.33
1725877152.040;500;19.10;42818.80
1725877152.089;500;18.89;42329.07
1725877152.139;500;18.89;42329.07
1725877152.190;500;18.89;42329.07
1725877152.391;500;16.63;37182.67
1725877152.441;500;16.48;36821.46
1725877152.491;500;16.48;36821.46
1725877152.542;500;16.59;37076.54
1725877152.591;500;19.01;42600.40
1725877152.641;500;19.01;42600.40
1725877152.692;500;19.01;42600.40
1725877152.742;500;18.71;41928.67
1725877152.791;500;17.44;39022.13
1725877152.841;500;17.44;39022.13
1725877152.891;500;16.80;37563.73
1725877152.942;500;18.89;42317.73
1725877152.992;500;18.89;42317.73
1725877153.043;500;18.89;42317.73
1725877153.093;500;18.39;41177.33
1725877153.144;500;17.58;39334.27
