UnixTimestamp;Microseconds;MilliAmpere;BaseValue
1724924070.238;500;10.00
1724924070.287;500;10.00
1724924070.336;500;10.00
1724924070.386;500;10.00
1724924070.437;500;10.00
1724924070.487;500;10.00
1724924070.536;500;10.00
1724924070.588;500;10.00
1724924070.637;500;10.00
1724924070.688;500;10.00
1724924070.737;500;10.00
1724924070.787;500;10.00
1724924070.837;500;10.00
1724924070.887;500;10.00
1724924070.937;500;10.00
1724924070.987;500;10.00
1724924071.037;500;10.00
1724924071.087;500;10.00
1724924071.137;500;10.00
1724924071.187;500;10.00
1724924071.237;500;10.00
1724924071.287;500;10.00
1724924071.338;500;10.00
1724924090.060;50;40.00
1724924090.110;50;40.00
1724924090.160;50;40.00
1724924090.209;50;40.00
1724924090.260;50;40.00
1724924090.310;50;40.00
1724924090.361;50;40.00
1724924090.411;50;40.00
1724924090.461;50;40.00
1724924090.511;50;40.00
1724924090.562;50;40.00
1724924090.611;50;40.00
1724924090.662;50;40.00
1724924090.712;50;40.00
1724924090.762;50;40.00
1724924090.812;50;40.00
1724924090.862;50;40.00
1724924090.912;50;40.00
1724924090.963;50;40.00
1724924091.013;50;40.00
1724924091.062;50;40.00
1724924091.114;50;40.00
1724924091.163;50;40.00
1724924104.604;51;10.00;41120.00
1724924104.654;67;10.00;36903.93
1724924104.705;67;10.00;36903.93
1724924104.755;67;10.00;36903.93
1724924104.855;71;10.00;35797.87
1724924104.905;71;10.00;35797.87
1724924104.955;65;10.00;37451.73
1724924105.155;70;10.00;36017.60
1724924105.206;70;10.00;36017.60
1724924105.256;70;10.00;36017.60
1724924105.306;67;10.00;36908.00
1724924105.356;70;10.00;36083.20
1724924105.407;70;10.00;36083.20
1724924105.506;66;10.00;37039.46
1724924105.557;64;10.00;37554.00
1724924105.608;64;10.00;37554.00
1724924105.658;66;10.00;36987.20
1724924105.707;68;10.00;36675.46
1724924105.758;68;10.00;36675.46
1724924105.807;68;10.00;36675.46
1724924105.858;66;10.00;37023.46
1724924105.907;70;10.00;35914.33
1724924105.958;70;10.00;35914.33
1724924106.007;70;10.00;35914.33
1724924106.059;61;10.00;38304.67
1724924106.108;68;10.00;36604.27
1724924106.159;68;10.00;36604.27
1724924106.209;68;10.00;36604.27
1724924106.259;68;10.00;36621.60
1724924106.309;72;10.00;35410.00
1724924106.358;72;10.00;35410.00
1724924106.409;72;10.00;35410.00
1724924106.459;63;10.00;37920.67
1724924106.509;63;10.00;37920.67
1724924106.560;63;10.00;37920.67
1724924106.761;68;10.00;36575.07
1724924106.811;66;10.00;37210.33
1724924106.861;66;10.00;37210.33
1724924106.911;66;10.00;37210.33
1724924106.961;65;10.00;37244.73
1724924107.162;64;10.00;37629.27
1724924107.212;64;10.00;37629.27
1724924107.262;64;10.00;37629.27
1724924107.311;68;10.00;36680.54
1724924107.361;67;10.00;36807.33
1724924107.412;67;10.00;36807.33
1724924107.462;66;10.00;37060.27
1724924107.513;66;10.00;36977.00
1724924107.562;70;10.00;36150.40
1724924107.612;70;10.00;36150.40
1724924107.662;68;10.00;36546.87
1724924107.713;66;10.00;37050.07
1724924107.912;71;10.00;35900.27
1724924107.962;69;10.00;36208.27
1724924108.013;69;10.00;36208.27
1724924108.063;69;10.00;36208.27
1724924108.162;54;10.00;40342.40
1724924108.213;54;10.00;40342.40
1724924108.262;54;10.00;40342.40
1724924108.312;71;10.00;35711.73
1724924108.363;71;10.00;35711.73
1724924108.413;71;10.00;35711.73
1724924108.463;66;10.00;37124.80
1724924108.664;69;10.00;36407.46
1724924108.714;69;10.00;36407.46
1724924108.764;69;10.00;36407.46
1724924108.814;68;10.00;36641.87
1724924108.864;67;10.00;36751.87
1724924108.914;67;10.00;36751.87
1724924108.964;67;10.00;36751.87
1724924109.015;66;10.00;37200.73
1724924109.216;72;10.00;35462.27
1724924109.367;72;10.00;35560.80
1724924109.717;72;10.00;35619.33
1724924109.768;65;10.00;37471.07
1724924109.818;65;10.00;37471.07
1724924109.870;65;10.00;37471.07
1724924121.508;56;10.00;39775.00
1724924121.558;72;10.00;35472.80
1724924121.609;65;10.00;37332.40
1724924121.659;65;10.00;37332.40
1724924121.709;65;10.00;37332.40
1724924121.759;63;10.00;37902.54
1724924121.809;70;10.00;35908.54
1724924121.859;64;10.00;37523.20
1724924121.909;64;10.00;37523.20
1724924121.959;64;10.00;37523.20
1724924122.009;71;10.00;35812.73
1724924122.059;66;10.00;37085.60
1724924122.109;66;10.00;37085.60
1724924122.158;66;10.00;37085.60
1724924122.210;64;10.00;37512.27
1724924122.259;65;10.00;37306.40
1724924122.309;65;10.00;37306.40
1724924122.360;65;10.00;37306.40
1724924122.411;68;10.00;36650.54
1724924122.460;65;10.00;37404.54
1724924122.511;65;10.00;37404.54
1724924122.561;65;10.00;37404.54
1724924122.611;65;10.00;37395.73
1724924122.661;67;10.00;36728.93
1724924122.711;67;10.00;36728.93
1724924122.761;67;10.00;36728.93
1724924122.861;64;10.00;37627.67
1724924122.912;64;10.00;37627.67
1724924122.962;64;10.00;37627.67
1724924123.061;72;10.00;35492.27
1724924123.262;71;10.00;35688.00
1724924123.312;72;10.00;35564.54
1724924123.362;68;10.00;36660.27
1724924123.412;68;10.00;36660.27
1724924123.462;68;10.00;36500.00
1724924123.512;70;10.00;36129.40
1724924123.562;69;10.00;36177.00
1724924123.612;69;10.00;36177.00
1724924123.663;68;10.00;36669.60
1724924123.712;65;10.00;37361.60
1724924123.762;71;10.00;35780.13
1724924123.812;71;10.00;35780.13
1724924123.862;71;10.00;35780.13
1724924123.913;54;10.00;40233.80
1724924123.963;72;10.00;35508.00
1724924124.012;72;10.00;35508.00
1724924124.067;72;10.00;35508.00
1724924124.115;72;10.00;35496.00
1724924124.366;67;10.00;36766.20
1724924124.416;67;10.00;36766.20
1724924124.466;67;10.00;36766.20
1724924124.516;67;10.00;36816.00
1724924124.566;69;10.00;36206.13
1724924124.616;69;10.00;36206.13
1724924124.667;72;10.00;35555.87
1724924124.766;66;10.00;36980.27
1724924124.817;66;10.00;36980.27
1724924124.867;62;10.00;38164.27
1724924124.917;67;10.00;36783.60
1724924124.968;68;10.00;36676.54
1724924125.018;68;10.00;36676.54
1724924125.068;67;10.00;36751.33
1724924125.118;69;10.00;36185.73
1724924125.168;66;10.00;36981.00
1724924125.219;66;10.00;36981.00
1724924125.269;66;10.00;36981.00
1724924125.668;68;10.00;36567.20
1724924125.719;65;10.00;37389.40
1724924125.770;65;10.00;37389.40
1724924125.819;65;10.00;37389.40
1724924125.870;68;10.00;36589.60
1724924125.919;70;10.00;35966.80
1724924125.969;70;10.00;35966.80
1724924126.019;70;10.00;35966.80
1724924126.070;72;10.00;35577.33
1724924126.271;72;10.00;35588.27
1724924126.322;65;10.00;37277.33
1724924126.372;65;10.00;37277.33
1724924126.422;65;10.00;37277.33
1724924126.672;65;10.00;37367.20
1724924126.722;71;10.00;35719.60
1724924126.772;71;10.00;35719.60
1724924126.823;71;10.00;35719.60
1724924126.923;64;10.00;37722.93
1724924126.972;64;10.00;37722.93
1724924127.022;64;10.00;37722.93
1724924127.072;50;10.00;41391.07
1724924127.122;50;10.00;41391.07
1724924127.172;50;10.00;41391.07
1724924127.222;66;10.00;37031.07
1724924127.273;72;10.00;35407.07
1724924127.322;72;10.00;35407.07
1724924127.372;72;10.00;35407.07
1724924127.423;72;10.00;35391.20
1724924127.473;61;10.00;38476.54
1724924137.086;60;10.00;38675.20
1724924137.137;67;10.00;36870.46
1724924137.187;71;10.00;35772.87
1724924137.236;71;10.00;35772.87
1724924137.288;72;10.00;35479.67
1724924137.638;67;10.00;36779.07
1724924137.888;65;10.00;37369.46
1724924137.938;65;10.00;37369.46
1724924137.989;68;10.00;36430.27
1724924138.038;66;10.00;36957.07
1724924138.090;67;10.00;36809.73
1724924138.140;67;10.00;36809.73
1724924138.189;60;10.00;38676.00
1724924138.291;64;10.00;37628.80
1724924138.341;64;10.00;37628.80
1724924138.391;72;10.00;35415.46
1724924138.441;67;10.00;36757.07
1724924138.491;67;10.00;36757.07
1724924138.542;67;10.00;36757.07
1724924138.591;66;10.00;37105.00
1724924138.641;65;10.00;37425.00
1724924138.692;65;10.00;37425.00
1724924138.742;65;10.00;37425.00
1724924138.791;65;10.00;37301.46
1724924138.842;65;10.00;37301.46
1724924138.892;71;10.00;35861.60
1724924138.942;66;10.00;37146.67
1724924138.992;66;10.00;37146.67
1724924139.041;66;10.00;37146.67
1724924139.092;68;10.00;36662.13
1724924139.141;68;10.00;36662.13
1724924139.192;68;10.00;36662.13
1724924139.242;65;10.00;37328.93
1724924139.291;65;10.00;37328.93
1724924139.342;65;10.00;37328.93
1724924139.392;72;10.00;35563.46
1724924139.442;71;10.00;35783.07
1724924139.493;71;10.00;35783.07
1724924139.543;71;10.00;35783.07
1724924139.592;71;10.00;35729.33
1724924139.642;65;10.00;37331.20
1724924139.693;71;10.00;35721.00
1724924139.742;71;10.00;35721.00
1724924139.792;66;10.00;37020.93
1724924139.842;68;10.00;36645.60
1724924139.892;68;10.00;36645.60
1724924139.942;68;10.00;36645.60
1724924139.992;67;10.00;36805.46
1724924140.043;68;10.00;36561.07
1724924140.092;68;10.00;36561.07
1724924140.142;70;10.00;35976.80
1724924140.393;72;10.00;35470.93
1724924140.443;72;10.00;35470.93
1724924140.542;63;10.00;37826.40
1724924140.593;63;10.00;37826.40
1724924140.642;63;10.00;37826.40
1724924140.843;65;10.00;37300.40
1724924140.892;65;10.00;37218.27
1724924140.943;65;10.00;37218.27
1724924140.992;65;10.00;37218.27
1724924141.043;68;10.00;36600.27
1724924141.394;72;10.00;35559.73
1724924141.443;66;10.00;37161.07
1724924141.494;66;10.00;37161.07
1724924141.543;66;10.00;37161.07
1724924141.595;72;10.00;35495.93
1724924141.645;72;10.00;35495.93
1724924141.695;72;10.00;35495.93
1724924141.745;72;10.00;35518.33
1724924141.997;66;10.00;37007.80
1724924142.048;66;10.00;37007.80
1724924142.098;72;10.00;35478.00
1724924142.149;72;10.00;35478.00
1724924142.198;72;10.00;35478.00
1724924157.100;40;10.00;36323.20
1724924157.150;40;10.00;36323.20
1724924157.200;40;10.00;36323.20
1724924157.250;52;10.00;34876.00
1724924157.300;54;10.00;34668.67
1724924157.351;54;10.00;34668.67
1724924157.400;52;10.00;34844.27
1724924157.450;52;10.00;34844.27
1724924157.501;52;10.00;34844.27
1724924157.551;47;10.00;35557.33
1724924157.601;52;10.00;34827.87
1724924157.651;52;10.00;34827.87
1724924157.701;48;10.00;35397.73
1724924157.751;42;10.00;36160.20
1724924157.801;42;10.00;36160.20
1724924157.851;42;10.00;36160.20
1724924157.901;45;10.00;35763.00
1724924157.951;44;10.00;35929.00
1724924158.001;41;10.00;36305.73
1724924158.051;41;10.00;36305.73
1724924158.101;55;10.00;34480.27
1724924158.151;52;10.00;34860.27
1724924158.201;41;10.00;36249.27
1724924158.251;41;10.00;36249.27
1724924158.303;41;10.00;36271.93
1724924158.353;41;10.00;36262.46
1724924158.403;52;10.00;34916.60
1724924158.453;52;10.00;34916.60
1724924158.503;42;10.00;36154.67
1724924158.553;50;10.00;35100.60
1724924158.602;50;10.00;35100.60
1724924158.652;50;10.00;35100.60
1724924158.702;39;10.00;36561.33
1724924158.753;39;10.00;36561.33
1724924158.803;39;10.00;36561.33
1724924158.854;41;10.00;36314.27
1724924158.904;53;10.00;34742.67
1724924158.954;53;10.00;34742.67
1724924159.004;53;10.00;34742.67
1724924159.054;48;10.00;35328.67
1724924159.104;48;10.00;35328.67
1724924159.154;48;10.00;35328.67
1724924159.203;38;10.00;36659.60
1724924159.253;43;10.00;35971.87
1724924159.304;43;10.00;35971.87
1724924159.354;33;10.00;37295.73
1724924159.404;53;10.00;34744.87
1724924159.454;53;10.00;34744.87
1724924159.504;52;10.00;34835.87
1724924159.554;39;10.00;36467.73
1724924159.605;39;10.00;36467.73
1724924159.654;39;10.00;36467.73
1724924159.705;54;10.00;34581.40
1724924159.755;54;10.00;34581.40
1724924159.806;54;10.00;34581.40
1724924159.856;38;10.00;36591.46
1724924159.906;51;10.00;35024.54
1724924159.957;51;10.00;35024.54
1724924160.007;49;10.00;35291.73
1724924160.157;47;10.00;35528.33
1724924160.207;41;10.00;36292.93
1724924160.258;41;10.00;36292.93
1724924160.309;41;10.00;36285.93
1724924160.359;50;10.00;35146.07
1724924160.410;50;10.00;35146.07
1724924160.512;46;10.00;35607.33
1724924160.562;46;10.00;35607.33
1724924160.612;46;10.00;35607.33
1724924160.661;47;10.00;35459.40
1724924160.712;55;10.00;34499.67
1724924160.762;55;10.00;34499.67
1724924160.812;39;10.00;36500.00
1724924160.862;35;10.00;36977.00
1724924160.912;35;10.00;36977.00
1724924160.962;35;10.00;36977.00
1724924161.012;50;10.00;35156.67
1724924161.063;38;10.00;36629.67
1724924161.112;38;10.00;36629.67
1724924161.162;38;10.00;36629.67
1724924161.212;53;10.00;34759.54
1724924161.262;53;10.00;34759.54
1724924161.313;53;10.00;34759.54
1724924161.363;40;10.00;36363.33
1724924161.413;30;10.00;37625.13
1724924161.463;30;10.00;37625.13
1724924161.512;51;10.00;34971.27
1724924161.562;45;10.00;35788.13
1724924161.613;45;10.00;35788.13
1724924161.662;45;10.00;35788.13
1724924161.713;42;10.00;36150.60
1724924161.762;42;10.00;36150.60
1724924161.813;42;10.00;36150.60
1724924161.863;32;10.00;37371.20
1724924161.919;52;10.00;34879.60
1724924161.964;52;10.00;34879.60
1724924162.015;52;10.00;34879.60
1724924162.065;55;10.00;34537.40
1724924171.981;48;10.00;35341.73
1724924172.031;48;10.00;35341.73
1724924172.081;48;10.00;35341.73
1724924172.131;44;10.00;35851.73
1724924172.181;41;10.00;36303.46
1724924172.231;41;10.00;36303.46
1724924172.281;41;10.00;36303.46
1724924172.332;53;10.00;34778.40
1724924172.382;53;10.00;34778.40
1724924172.432;53;10.00;34778.40
1724924172.482;46;10.00;35663.67
1724924172.532;46;10.00;35562.67
1724924172.582;46;10.00;35562.67
1724924172.632;37;10.00;36768.54
1724924172.682;37;10.00;36768.54
1724924172.732;37;10.00;36768.54
1724924172.782;37;10.00;36768.54
1724924172.832;41;10.00;36318.73
1724924172.882;50;10.00;35055.07
1724924172.932;50;10.00;35055.07
1724924172.982;50;10.00;35055.07
1724924173.033;40;10.00;36351.40
1724924173.083;27;10.00;38065.93
1724924173.132;27;10.00;38065.93
1724924173.182;27;10.00;38065.93
1724924173.233;52;10.00;34922.54
1724924173.282;59;10.00;33921.60
1724924173.333;59;10.00;33921.60
1724924173.382;52;10.00;34888.40
1724924173.433;42;10.00;36079.73
1724924173.482;42;10.00;36079.73
1724924173.533;42;10.00;36079.73
1724924173.582;41;10.00;36273.27
1724924173.633;45;10.00;35791.00
1724924173.683;45;10.00;35791.00
1724924173.732;56;10.00;34377.73
1724924173.783;50;10.00;35127.93
1724924173.832;50;10.00;35127.93
1724924173.883;50;10.00;35127.93
1724924173.932;48;10.00;35424.67
1724924173.983;48;10.00;35424.67
1724924174.032;48;10.00;35424.67
1724924174.083;50;10.00;35122.54
1724924174.133;50;10.00;35122.54
1724924174.182;50;10.00;35122.54
1724924174.233;40;10.00;36334.27
1724924174.282;44;10.00;35845.54
1724924174.334;40;10.00;36364.40
1724924174.383;40;10.00;36364.40
1724924174.433;54;10.00;34628.60
1724924174.484;45;10.00;35701.40
1724924174.534;51;10.00;34977.46
1724924174.584;51;10.00;34977.46
1724924174.634;38;10.00;36698.40
1724924174.684;41;10.00;36203.46
1724924174.734;53;10.00;34736.80
1724924174.784;53;10.00;34736.80
1724924174.834;40;10.00;36398.67
1724924174.884;47;10.00;35464.60
1724924174.935;47;10.00;35464.60
1724924174.984;47;10.00;35464.60
1724924175.034;51;10.00;34926.40
1724924175.085;50;10.00;35084.33
1724924175.135;50;10.00;35084.33
1724924175.185;50;10.00;35169.13
1724924175.235;53;10.00;34734.93
1724924175.285;53;10.00;34734.93
1724924175.335;50;10.00;35092.00
1724924175.385;38;10.00;36663.93
1724924175.436;38;10.00;36663.93
1724924175.486;38;10.00;36663.93
1724924175.537;52;10.00;34839.67
1724924175.587;52;10.00;34839.67
1724924175.637;52;10.00;34839.67
1724924175.688;29;10.00;37784.73
1724924175.738;49;10.00;35271.33
1724924175.787;49;10.00;35271.33
1724924175.837;41;10.00;36252.46
1724924175.888;38;10.00;36609.87
1724924175.938;38;10.00;36609.87
1724924175.988;50;10.00;35140.67
1724924176.039;52;10.00;34849.46
1724924176.089;52;10.00;34849.46
1724924176.140;52;10.00;34849.46
1724924176.340;50;10.00;35141.46
1724924176.390;39;10.00;36454.20
1724924176.441;39;10.00;36454.20
1724924176.492;39;10.00;36454.20
1724924176.541;39;10.00;36485.40
1724924176.592;46;10.00;35678.40
1724924176.642;46;10.00;35678.40
1724924176.691;46;10.00;35678.40
1724924176.742;48;10.00;35318.80
1724924176.792;58;10.00;34126.40
1724924176.842;58;10.00;34126.40
1724924176.891;52;10.00;34882.80
1724924176.942;39;10.00;36516.80
1724924176.992;39;10.00;36516.80
1724924177.042;39;10.00;36516.80
1724924177.092;40;10.00;36409.07
1724924186.889;41;10.00;36251.27
1724924186.940;39;10.00;36516.27
1724924186.990;39;10.00;36516.27
1724924187.041;51;10.00;35012.80
1724924187.091;39;10.00;36488.27
1724924187.141;39;10.00;36488.27
1724924187.191;39;10.00;36488.27
1724924187.241;56;10.00;34359.33
1724924187.291;56;10.00;34359.33
1724924187.341;56;10.00;34359.33
1724924187.391;51;10.00;34940.27
1724924187.442;51;10.00;34940.27
1724924187.492;51;10.00;34940.27
1724924187.542;50;10.00;35158.07
1724924187.592;44;10.00;35822.60
1724924187.642;44;10.00;35822.60
1724924187.692;44;10.00;35822.60
1724924187.743;50;10.00;35089.07
1724924187.793;42;10.00;36080.93
1724924187.843;42;10.00;36080.93
1724924187.893;42;10.00;36080.93
1724924187.943;55;10.00;34521.80
1724924187.992;46;10.00;35609.46
1724924188.042;37;10.00;36722.80
1724924188.093;37;10.00;36722.80
1724924188.144;35;10.00;37040.60
1724924188.193;54;10.00;34574.73
1724924188.244;52;10.00;34831.54
1724924188.294;52;10.00;34831.54
1724924188.345;53;10.00;34689.20
1724924188.395;50;10.00;35119.54
1724924188.445;50;10.00;35119.54
1724924188.495;50;10.00;35119.54
1724924188.545;53;10.00;34762.60
1724924188.695;52;10.00;34800.13
1724924188.745;41;10.00;36229.33
1724924188.795;41;10.00;36229.33
1724924188.845;41;10.00;36229.33
1724924188.895;45;10.00;35797.60
1724924188.945;52;10.00;34912.67
1724924188.995;52;10.00;34912.67
1724924189.045;48;10.00;35335.87
1724924189.096;25;10.00;38249.80
1724924189.146;25;10.00;38249.80
1724924189.196;25;10.00;38249.80
1724924189.247;51;10.00;34940.67
1724924189.298;51;10.00;34940.67
1724924189.347;51;10.00;34940.67
1724924189.397;39;10.00;36521.73
1724924189.448;38;10.00;36636.54
1724924189.498;38;10.00;36636.54
1724924189.548;38;10.00;36636.54
1724924189.597;45;10.00;35698.46
1724924189.647;45;10.00;35698.46
1724924189.698;45;10.00;35698.46
1724924189.747;51;10.00;35016.07
1724924189.799;52;10.00;34815.93
1724924189.848;52;10.00;34815.93
1724924189.949;48;10.00;35356.60
1724924189.999;48;10.00;35356.60
1724924190.099;53;10.00;34696.00
1724924190.150;44;10.00;35829.07
1724924190.199;44;10.00;35829.07
1724924190.249;53;10.00;34687.33
1724924190.299;54;10.00;34645.93
1724924190.349;54;10.00;34645.93
1724924190.401;42;10.00;36189.40
1724924190.451;51;10.00;34959.67
1724924190.501;51;10.00;34959.67
1724924190.551;58;10.00;34069.67
1724924190.602;41;10.00;36224.20
1724924190.651;41;10.00;36224.20
1724924190.701;41;10.00;36224.20
1724924190.752;51;10.00;35046.93
1724924190.801;53;10.00;34738.87
1724924190.851;53;10.00;34738.87
1724924190.901;53;10.00;34738.87
1724924190.951;40;10.00;36384.33
1724924191.001;39;10.00;36467.54
1724924191.051;39;10.00;36467.54
1724924191.101;39;10.00;36467.54
1724924191.151;40;10.00;36383.87
1724924191.201;53;10.00;34678.20
1724924191.251;53;10.00;34678.20
1724924191.301;53;10.00;34678.20
1724924191.352;54;10.00;34624.93
1724924191.402;54;10.00;34624.93
1724924191.451;54;10.00;34624.93
1724924191.502;40;10.00;36395.00
1724924191.551;54;10.00;34637.00
1724924191.601;54;10.00;34637.00
1724924191.651;54;10.00;34637.00
1724924191.702;48;10.00;35345.80
1724924191.752;48;10.00;35345.80
1724924191.803;48;10.00;35345.80
1724924191.852;48;10.00;35425.93
1724924191.902;48;10.00;35425.93
1724924191.952;48;10.00;35425.93
1724924192.002;49;10.00;35190.80
1724924209.420;44;40.00;35880.00
1724924209.470;37;40.00;36714.54
1724924209.520;50;40.00;35057.13
1724924209.570;50;40.00;35057.13
1724924209.620;48;40.00;35423.00
1724924209.670;50;40.00;35155.40
1724924209.720;50;40.00;35155.40
1724924209.770;50;40.00;35155.40
1724924209.820;53;40.00;34692.93
1724924209.870;53;40.00;34692.93
1724924209.921;53;40.00;34692.93
1724924209.971;54;40.00;34638.60
1724924210.021;39;40.00;36570.20
1724924210.071;39;40.00;36570.20
1724924210.120;39;40.00;36570.20
1724924210.171;37;40.00;36708.54
1724924210.228;44;40.00;35846.73
1724924210.272;44;40.00;35846.73
1724924210.321;44;40.00;35846.73
1724924210.372;53;40.00;34781.20
1724924210.422;51;40.00;35039.07
1724924210.472;51;40.00;35039.07
1724924210.522;51;40.00;35039.07
1724924210.573;39;40.00;36506.87
1724924210.673;40;40.00;36403.87
1724924210.723;40;40.00;36403.87
1724924210.772;40;40.00;36403.87
1724924210.822;42;40.00;36119.67
1724924210.872;45;40.00;35714.00
1724924210.922;45;40.00;35714.00
1724924210.972;45;40.00;35714.00
1724924211.022;56;40.00;34406.07
1724924211.223;40;40.00;36324.93
1724924211.273;41;40.00;36301.73
1724924211.324;41;40.00;36301.73
1724924211.372;53;40.00;34672.67
1724924211.424;41;40.00;36268.73
1724924211.474;40;40.00;36419.40
1724924211.525;40;40.00;36419.40
1724924211.576;40;40.00;36419.40
1724924211.626;51;40.00;34974.27
1724924211.676;39;40.00;36458.67
1724924211.726;39;40.00;36458.67
1724924211.775;44;40.00;35861.73
1724924211.825;42;40.00;36144.13
1724924211.876;39;40.00;36463.67
1724924211.926;39;40.00;36463.67
1724924211.975;39;40.00;36504.60
1724924212.026;38;40.00;36628.73
1724924212.076;38;40.00;36628.73
1724924212.126;38;40.00;36628.73
1724924212.176;40;40.00;36434.13
1724924212.226;48;40.00;35390.00
1724924212.275;48;40.00;35390.00
1724924212.327;48;40.00;35390.00
1724924212.377;40;40.00;36356.00
1724924212.426;51;40.00;34958.46
1724924212.477;36;40.00;36847.40
1724924212.527;36;40.00;36847.40
1724924212.577;47;40.00;35503.54
1724924212.677;38;40.00;36617.87
1724924212.727;38;40.00;36617.87
1724924212.777;38;40.00;36617.87
1724924212.828;51;40.00;34964.27
1724924212.878;53;40.00;34787.93
1724924212.928;39;40.00;36473.40
1724924212.979;39;40.00;36473.40
1724924213.029;39;40.00;36473.40
1724924213.080;42;40.00;36089.80
1724924213.130;36;40.00;36856.13
1724924213.180;38;40.00;36625.80
1724924213.230;38;40.00;36625.80
1724924213.280;38;40.00;36625.80
1724924213.330;28;40.00;37855.40
1724924213.380;48;40.00;35329.60
1724924213.430;48;40.00;35329.60
1724924213.481;48;40.00;35329.60
1724924213.530;48;40.00;35386.87
1724924213.580;40;40.00;36368.27
1724924213.630;40;40.00;36368.27
1724924213.681;31;40.00;37591.27
1724924213.731;39;40.00;36467.93
1724924213.782;39;40.00;36467.93
1724924213.832;39;40.00;36467.93
1724924213.881;44;40.00;35881.54
1724924213.932;30;40.00;37597.93
1724924213.981;50;40.00;35093.13
1724924214.031;50;40.00;35093.13
1724924214.082;50;40.00;35093.13
1724924214.131;55;40.00;34473.80
1724924214.283;52;40.00;34822.33
1724924214.333;41;40.00;36233.80
1724924214.385;32;40.00;37374.20
1724924214.433;32;40.00;37374.20
1724924214.484;44;40.00;35856.27
1724924214.533;43;40.00;36037.00
1724924214.585;43;40.00;36037.00
1724924214.634;43;40.00;36037.00
1724924214.685;41;40.00;36251.33
1724924214.735;47;40.00;35494.13
1724924214.784;47;40.00;35494.13
1724924214.834;47;40.00;35494.13
1724924214.885;40;40.00;36392.00
1724924214.934;43;40.00;36044.73
1724924214.985;43;40.00;36044.73
1724924215.035;43;40.00;36044.73
1724924215.085;51;40.00;35011.93
1724924215.136;53;40.00;34732.80
1724924215.186;53;40.00;34732.80
1724924215.236;53;40.00;34732.80
1724924215.286;40;40.00;36370.20
1724924215.335;38;40.00;36646.67
1724924226.534;57;40.00;34252.00
1724924226.584;59;40.00;33988.40
1724924226.634;47;40.00;35549.13
1724924226.683;47;40.00;35549.13
1724924226.734;47;40.00;35549.13
1724924226.783;39;40.00;36539.60
1724924226.835;39;40.00;36539.60
1724924226.885;39;40.00;36539.60
1724924226.935;39;40.00;36539.60
1724924226.986;39;40.00;36525.87
1724924227.035;39;40.00;36525.87
1724924227.085;39;40.00;36525.87
1724924227.135;39;40.00;36525.87
1724924227.186;42;40.00;36160.54
1724924227.235;39;40.00;36460.20
1724924227.286;39;40.00;36460.20
1724924227.335;39;40.00;36460.20
1724924227.386;51;40.00;34935.46
1724924227.436;51;40.00;34935.46
1724924227.486;51;40.00;34935.46
1724924227.536;51;40.00;34935.46
1724924227.587;51;40.00;34956.93
1724924227.637;47;40.00;35490.60
1724924227.688;57;40.00;34191.33
1724924227.737;57;40.00;34191.33
1724924227.788;57;40.00;34191.33
1724924227.838;39;40.00;36526.67
1724924227.889;39;40.00;36466.93
1724924227.938;54;40.00;34642.73
1724924227.989;54;40.00;34642.73
1724924228.039;54;40.00;34642.73
1724924228.089;31;40.00;37514.93
1724924228.139;25;40.00;38351.40
1724924228.189;51;40.00;34928.67
1724924228.240;51;40.00;34928.67
1724924228.290;51;40.00;34928.67
1724924228.340;41;40.00;36207.46
1724924228.390;42;40.00;36163.54
1724924228.440;42;40.00;36163.54
1724924228.491;42;40.00;36163.54
1724924228.541;34;40.00;37120.33
1724924228.591;30;40.00;37688.07
1724924228.641;30;40.00;37688.07
1724924228.691;30;40.00;37688.07
1724924228.741;52;40.00;34825.40
1724924228.791;35;40.00;36975.13
1724924228.842;35;40.00;36975.13
1724924228.892;35;40.00;36975.13
1724924228.942;43;40.00;35967.20
1724924228.991;39;40.00;36523.54
1724924229.042;39;40.00;36523.54
1724924229.092;39;40.00;36523.54
1724924229.142;51;40.00;35010.67
1724924229.192;15;40.00;39623.00
1724924229.242;15;40.00;39623.00
1724924229.292;53;40.00;34766.07
1724924229.341;39;40.00;36523.33
1724924229.392;39;40.00;36523.33
1724924229.442;39;40.00;36523.33
1724924229.492;42;40.00;36100.80
1724924229.542;51;40.00;34976.93
1724924229.591;51;40.00;34976.93
1724924229.642;51;40.00;34976.93
1724924229.693;40;40.00;36364.33
1724924229.742;39;40.00;36453.33
1724924229.792;39;40.00;36453.33
1724924229.842;39;40.00;36453.33
1724924229.893;43;40.00;35942.27
1724924229.942;50;40.00;35061.13
1724924229.993;50;40.00;35061.13
1724924230.042;50;40.00;35061.13
1724924230.093;43;40.00;35987.54
1724924230.142;38;40.00;36671.20
1724924230.193;38;40.00;36671.20
1724924230.242;38;40.00;36671.20
1724924230.293;51;40.00;35050.27
1724924230.342;44;40.00;35934.93
1724924230.393;44;40.00;35934.93
1724924230.443;44;40.00;35934.93
1724924230.493;39;40.00;36501.33
1724924230.543;19;40.00;39113.87
1724924230.593;19;40.00;39113.87
1724924230.642;19;40.00;39113.87
1724924230.693;40;40.00;36421.73
1724924230.743;38;40.00;36642.33
1724924230.793;47;40.00;35470.27
1724924230.843;47;40.00;35470.27
1724924230.893;47;40.00;35555.54
1724924230.943;43;40.00;35995.73
1724924230.993;55;40.00;34478.80
1724924231.043;55;40.00;34478.80
1724924231.093;58;40.00;34090.60
1724924231.143;28;40.00;37948.67
1724924231.193;40;40.00;36440.40
1724924231.242;40;40.00;36440.40
1724924231.292;40;40.00;36390.20
1724924231.343;34;40.00;37199.07
1724924231.393;34;40.00;37199.07
1724924231.443;34;40.00;37199.07
1724924231.493;39;40.00;36573.13
1724924231.543;45;40.00;35768.87
1724924231.593;45;40.00;35768.87
1724924231.643;45;40.00;35768.87
1724924231.692;40;40.00;36385.20
1724924231.743;49;40.00;35202.07
1724924231.793;49;40.00;35202.07
1724924231.843;49;40.00;35202.07
1724924231.893;43;40.00;36054.40
1724924231.943;39;40.00;36558.93
1724924231.992;32;40.00;37440.87
1724924232.043;32;40.00;37440.87
1724924232.093;51;40.00;34936.67
1724924232.143;39;40.00;36506.67
1724924232.193;45;40.00;35750.40
1724924232.243;45;40.00;35750.40
1724924232.293;46;40.00;35613.07
1724924232.343;51;40.00;34999.33
1724924232.393;43;40.00;35996.46
1724924232.444;43;40.00;35996.46
1724924232.494;43;40.00;35996.46
1724924232.544;42;40.00;36138.60
1724924243.544;54;40.00;34655.21
1724924243.594;49;40.00;35203.87
1724924243.644;49;40.00;35203.87
1724924243.694;49;40.00;35203.87
1724924243.744;42;40.00;36125.40
1724924243.794;46;40.00;35626.33
1724924243.844;46;40.00;35626.33
1724924243.895;52;40.00;34828.54
1724924243.945;39;40.00;36541.27
1724924243.994;39;40.00;36541.27
1724924244.045;39;40.00;36541.27
1724924244.095;40;40.00;36435.40
1724924244.146;40;40.00;36435.40
1724924244.195;40;40.00;36435.40
1724924244.246;52;40.00;34835.07
1724924244.296;51;40.00;34939.87
1724924244.346;51;40.00;34939.87
1724924244.395;40;40.00;36384.20
1724924244.446;51;40.00;34982.54
1724924244.496;51;40.00;34982.54
1724924244.546;51;40.00;34982.54
1724924244.597;38;40.00;36662.20
1724924244.647;30;40.00;37630.93
1724924244.697;30;40.00;37630.93
1724924244.748;26;40.00;38138.27
1724924244.798;53;40.00;34766.87
1724924244.848;53;40.00;34766.87
1724924244.898;53;40.00;34766.87
1724924244.948;55;40.00;34527.67
1724924244.998;55;40.00;34527.67
1724924245.048;55;40.00;34527.67
1724924245.098;31;40.00;37518.27
1724924245.148;31;40.00;37518.27
1724924245.199;31;40.00;37518.27
1724924245.250;42;40.00;36112.00
1724924245.299;54;40.00;34630.00
1724924245.350;54;40.00;34630.00
1724924245.400;54;40.00;34630.00
1724924245.450;40;40.00;36370.54
1724924245.500;40;40.00;36370.54
1724924245.550;40;40.00;36370.54
1724924245.600;36;40.00;36885.80
1724924245.651;43;40.00;36063.67
1724924245.701;43;40.00;36063.67
1724924245.752;43;40.00;36063.67
1724924245.802;54;40.00;34646.07
1724924245.852;54;40.00;34646.07
1724924245.902;54;40.00;34646.07
1724924245.952;41;40.00;36302.93
1724924246.002;41;40.00;36302.93
1724924246.052;41;40.00;36302.93
1724924246.101;55;40.00;34491.80
1724924246.151;45;40.00;35747.33
1724924246.201;45;40.00;35747.33
1724924246.251;45;40.00;35747.33
1724924246.301;42;40.00;36163.46
1724924246.352;39;40.00;36502.67
1724924246.402;39;40.00;36502.67
1724924246.452;39;40.00;36502.67
1724924246.501;48;40.00;35424.40
1724924246.552;48;40.00;35424.40
1724924246.601;48;40.00;35424.40
1724924246.651;42;40.00;36135.40
1724924246.702;36;40.00;36917.87
1724924246.752;36;40.00;36917.87
1724924246.801;28;40.00;37846.87
1724924246.851;50;40.00;35076.87
1724924246.902;50;40.00;35076.87
1724924246.952;50;40.00;35076.87
1724924247.001;54;40.00;34597.67
1724924247.051;39;40.00;36479.07
1724924247.102;39;40.00;36479.07
1724924247.152;39;40.00;36479.07
1724924247.202;47;40.00;35507.13
1724924247.252;47;40.00;35507.13
1724924247.302;47;40.00;35507.13
1724924247.352;39;40.00;36471.40
1724924247.401;39;40.00;36502.40
1724924247.451;39;40.00;36502.40
1724924247.502;44;40.00;35827.73
1724924247.552;39;40.00;36475.67
1724924247.602;39;40.00;36475.67
1724924247.652;39;40.00;36475.67
1724924247.701;50;40.00;35099.80
1724924247.751;43;40.00;36021.07
1724924247.802;49;40.00;35184.87
1724924247.852;49;40.00;35184.87
1724924247.902;49;40.00;35184.87
1724924247.952;52;40.00;34874.00
1724924248.002;53;40.00;34714.87
1724924248.052;53;40.00;34714.87
1724924248.101;53;40.00;34714.87
1724924248.151;39;40.00;36538.67
1724924248.202;29;40.00;37797.27
1724924248.252;29;40.00;37797.27
1724924248.302;29;40.00;37797.27
1724924248.352;33;40.00;37243.07
1724924248.401;43;40.00;35959.73
1724924248.452;43;40.00;35959.73
1724924248.508;35;40.00;37019.73
1724924248.555;40;40.00;36400.07
1724924248.606;38;40.00;36591.87
1724924248.656;38;40.00;36591.87
1724924248.706;52;40.00;34835.60
1724924248.756;44;40.00;35907.93
1724924269.753;200;13.31;37540.80
1724924269.802;200;12.87;36055.33
1724924269.853;200;12.87;36055.33
1724924269.954;200;13.13;36931.46
1724924270.010;200;13.13;36931.46
1724924270.059;200;13.14;36950.13
1724924270.108;200;12.97;36397.87
1724924270.208;200;13.32;37581.67
1724924270.259;200;13.32;37581.67
1724924270.309;200;12.80;35823.33
1724924270.359;200;12.79;35766.00
1724924270.408;200;13.18;37106.93
1724924270.459;200;13.18;37106.93
1724924270.508;200;13.18;37106.93
1724924270.560;200;12.74;35607.46
1724924270.659;200;13.40;37836.80
1724924270.709;200;13.40;37836.80
1724924270.961;200;13.07;36717.87
1724924271.011;200;13.04;36623.46
1724924271.062;200;13.04;36623.46
1724924271.111;200;13.04;36623.46
1724924271.412;200;12.71;35496.40
1724924271.462;200;12.71;35496.40
1724924271.512;200;12.71;35496.40
1724924271.562;200;13.15;36985.07
1724924271.613;200;13.24;37305.07
1724924271.662;200;13.24;37305.07
1724924271.713;200;13.33;37604.73
1724924271.763;200;13.26;37381.33
1724924271.812;200;12.68;35392.73
1724924271.862;200;12.68;35392.73
1724924271.913;200;13.27;37389.33
1724924272.013;200;12.89;36102.80
1724924272.063;200;12.89;36102.80
1724924272.112;200;13.20;37163.73
1724924272.163;200;12.77;35711.46
1724924272.213;200;12.77;35711.46
1724924272.263;200;12.77;35711.46
1724924272.313;200;13.05;36666.67
1724924272.563;200;12.96;36366.60
1724924272.613;200;12.69;35430.40
1724924272.663;200;12.69;35430.40
1724924272.713;200;12.69;35430.40
1724924272.764;200;12.69;35430.40
1724924272.863;200;13.02;36560.00
1724924272.913;200;13.02;36560.00
1724924272.964;200;13.02;36560.00
1724924273.015;200;12.85;35986.13
1724924273.065;200;13.07;36713.67
1724924273.115;200;13.12;36907.87
1724924273.165;200;13.12;36907.87
1724924273.215;200;13.12;36907.87
1724924273.465;200;13.08;36742.93
1724924273.515;200;13.25;37343.46
1724924273.565;200;13.25;37343.46
1724924273.616;200;13.25;37343.46
1724924273.667;200;13.02;36570.27
1724924273.717;200;12.89;36115.07
1724924273.767;200;12.89;36115.07
1724924273.818;200;12.89;36115.07
1724924273.918;200;13.14;36954.67
1724924274.070;200;13.78;39114.13
1724924274.120;200;12.92;36229.33
1724924274.170;200;13.03;36578.67
1724924274.221;200;13.03;36578.67
1724924274.421;200;13.07;36711.87
1724924274.471;200;13.04;36613.60
1724924274.521;200;13.04;36613.60
1724924274.571;200;13.04;36613.60
1724924274.675;200;14.95;43099.07
1724924274.726;200;14.95;43099.07
1724924274.776;200;14.95;43099.07
1724924274.827;200;13.52;38238.80
1724924274.877;200;13.14;36948.33
1724924274.927;200;13.14;36948.33
1724924274.977;200;13.14;36948.33
1724924275.027;200;12.94;36284.54
1724924275.077;200;13.29;37476.13
1724924275.127;200;13.29;37476.13
1724924275.178;200;13.29;37476.13
1724924275.228;200;12.82;35886.80
1724924275.278;200;12.82;35886.80
1724924275.328;200;12.82;35886.80
1724924275.429;200;12.71;35497.27
1724924275.479;200;12.71;35497.27
1724924275.584;200;13.25;37345.33
1724924286.692;200;12.69;35444.13
1724924286.843;200;13.25;37321.07
1724924286.892;200;13.09;36779.73
1724924286.943;200;13.09;36779.73
1724924286.992;200;13.09;36779.73
1724924287.042;200;12.92;36228.54
1724924287.092;200;12.92;36228.54
1724924287.142;200;12.92;36228.54
1724924287.193;200;13.38;37770.93
1724924287.243;200;12.81;35858.40
1724924287.293;200;12.81;35858.40
1724924287.594;200;12.68;35409.20
1724924287.645;200;12.68;35409.20
1724924287.695;200;12.68;35409.20
1724924287.745;200;12.68;35409.20
1724924287.846;200;13.97;39766.00
1724924287.896;200;13.97;39766.00
1724924287.946;200;13.97;39766.00
1724924288.047;200;12.71;35516.40
1724924288.097;200;12.71;35516.40
1724924288.147;200;12.69;35435.87
1724924288.197;200;12.95;36317.46
1724924288.247;200;13.09;36785.20
1724924288.296;200;13.09;36785.20
1724924288.347;200;13.17;37070.27
1724924288.397;200;12.80;35826.40
1724924288.447;200;12.80;35826.40
1724924288.497;200;12.80;35826.40
1724924288.547;200;13.68;38780.93
1724924288.597;200;13.13;36917.46
1724924288.647;200;13.13;36917.46
1724924288.697;200;13.13;36917.46
1724924288.798;200;13.14;36964.54
1724924288.847;200;13.14;36964.54
1724924288.899;200;13.14;36964.54
1724924288.998;200;12.67;35382.93
1724924289.048;200;12.75;35638.27
1724924289.098;200;12.75;35638.27
1724924289.449;200;13.06;36699.33
1724924289.499;200;12.79;35774.07
1724924289.550;200;12.79;35774.07
1724924289.599;200;12.79;35774.07
1724924289.855;200;13.22;37219.40
1724924289.902;200;13.25;37327.87
1724924289.952;200;13.25;37327.87
1724924290.003;200;13.25;37327.87
1724924290.052;200;13.04;36625.60
1724924290.253;200;13.08;36757.07
1724924290.303;200;13.08;36757.07
1724924290.352;200;13.08;36757.07
1724924290.403;200;12.80;35823.73
1724924290.453;200;13.08;36763.46
1724924290.503;200;13.08;36763.46
1724924290.553;200;12.71;35507.60
1724924290.603;200;12.98;36408.00
1724924290.653;200;12.98;36408.00
1724924290.703;200;12.98;36408.00
1724924290.754;200;13.13;36939.20
1724924290.804;200;12.67;35388.40
1724924290.854;200;12.67;35388.40
1724924290.904;200;12.67;35388.40
1724924290.954;200;12.83;35896.60
1724924291.004;200;12.83;35896.60
1724924291.054;200;12.83;35896.60
1724924291.105;200;12.83;35896.60
1724924291.154;200;12.73;35572.93
1724924291.204;200;13.11;36873.60
1724924291.254;200;13.11;36873.60
1724924291.304;200;13.11;36873.60
1724924291.354;200;13.01;36516.67
1724924291.405;200;13.01;36516.67
1724924291.454;200;13.01;36516.67
1724924291.555;200;13.18;37110.87
1724924291.604;200;13.18;37110.87
1724924291.654;200;15.36;44457.46
1724924291.704;200;14.93;43031.33
1724924291.756;200;14.93;43031.33
1724924291.805;200;14.93;43031.33
1724924291.856;200;12.74;35595.46
1724924291.906;200;12.73;35573.73
1724924291.956;200;12.73;35573.73
1724924292.007;200;12.73;35573.73
1724924302.817;200;13.01;36517.20
1724924302.868;200;13.50;38184.67
1724924302.917;200;13.50;38184.67
1724924302.968;200;13.06;36700.80
1724924303.017;200;13.22;37244.67
1724924303.067;200;13.15;37000.67
1724924303.117;200;13.15;37000.67
1724924303.168;200;13.05;36658.67
1724924303.218;200;13.11;36868.46
1724924303.269;200;13.11;36868.46
1724924303.318;200;13.11;36868.46
1724924303.370;200;12.89;36128.54
1724924303.419;200;12.68;35404.93
1724924303.470;200;12.88;36068.27
1724924303.519;200;12.88;36068.27
1724924303.619;200;13.20;37148.67
1724924303.669;200;12.76;35669.07
1724924303.719;200;12.76;35669.07
1724924303.770;200;12.84;35959.46
1724924303.820;200;14.73;42322.93
1724924303.870;200;14.73;42322.93
1724924303.920;200;14.73;42322.93
1724924303.970;200;12.95;36328.54
1724924304.020;200;13.02;36553.80
1724924304.071;200;13.02;36553.80
1724924304.120;200;13.02;36553.80
1724924304.171;200;13.13;36918.13
1724924304.221;200;13.71;38897.87
1724924304.271;200;13.71;38897.87
1724924304.521;200;13.02;36554.27
1724924304.571;200;13.17;37075.33
1724924304.621;200;13.17;37075.33
1724924304.672;200;12.95;36334.67
1724924304.721;200;12.81;35861.60
1724924304.772;200;12.81;35861.60
1724924304.822;200;12.81;35861.60
1724924304.921;200;13.36;37717.87
1724924304.972;200;13.36;37717.87
1724924305.072;200;13.05;36643.46
1724924305.122;200;13.05;36643.46
1724924305.172;200;13.05;36643.46
1724924305.222;200;13.14;36947.60
1724924305.271;200;13.14;36947.60
1724924305.321;200;13.14;36947.60
1724924305.421;200;12.72;35529.13
1724924305.471;200;12.72;35529.13
1724924305.521;200;12.72;35529.13
1724924305.571;200;13.19;37128.13
1724924305.622;200;13.71;38901.33
1724924305.672;200;13.71;38901.33
1724924305.722;200;13.21;37184.67
1724924305.922;200;13.22;37218.80
1724924305.972;200;12.68;35418.40
1724924306.022;200;12.68;35418.40
1724924306.122;200;13.18;37094.13
1724924306.172;200;13.18;37094.13
1724924306.222;200;13.18;37094.13
1724924306.271;200;13.17;37075.87
1724924306.321;200;13.17;37075.87
1724924306.372;200;13.17;37075.87
1724924306.521;200;13.14;36958.27
1724924306.572;200;12.83;35915.33
1724924306.621;200;12.83;35915.33
1724924306.672;200;12.83;35915.33
1724924306.772;200;12.67;35356.00
1724924306.822;200;12.67;35356.00
1724924306.922;200;12.99;36444.80
1724924306.972;200;12.99;36444.80
1724924307.023;200;12.99;36444.80
1724924307.073;200;12.81;35835.87
1724924307.223;200;15.23;44022.54
1724924307.273;200;13.16;37025.60
1724924307.323;200;13.16;37025.60
1724924307.374;200;13.16;37025.60
1724924307.875;200;13.26;37365.07
1724924307.926;200;13.26;37365.07
1724924307.976;200;13.26;37365.07
1724924308.026;200;13.12;36905.60
1724924383.777;500;13.13;36934.13
1724924384.026;500;13.19;37132.20
1724924384.077;500;13.19;37132.20
1724924384.126;500;13.17;37069.33
1724924384.177;500;13.17;37073.60
1724924384.227;500;13.17;37073.60
1724924384.276;500;13.17;37073.60
1724924384.326;500;12.96;36367.87
1724924384.377;500;13.10;36810.54
1724924384.426;500;13.10;36810.54
1724924384.477;500;13.10;36810.54
1724924384.527;500;12.84;35943.20
1724924384.576;500;12.84;35943.20
1724924384.626;500;12.84;35943.20
1724924384.726;500;13.03;36591.07
1724924384.776;500;13.03;36591.07
1724924384.827;500;13.03;36591.07
1724924384.876;500;13.22;37237.87
1724924384.926;500;14.35;41040.07
1724924384.977;500;14.35;41040.07
1724924385.027;500;14.35;41040.07
1724924385.077;500;12.87;36038.13
1724924385.127;500;12.78;35729.46
1724924385.176;500;12.78;35729.46
1724924385.227;500;12.78;35729.46
1724924385.277;500;13.32;37586.93
1724924385.327;500;12.91;36168.40
1724924385.377;500;12.91;36168.40
1724924385.427;500;12.91;36168.40
1724924385.477;500;13.43;37946.60
1724924385.527;500;13.43;37946.60
1724924385.578;500;13.43;37946.60
1724924385.627;500;13.12;36891.73
1724924385.679;500;13.12;36891.73
1724924385.728;500;13.12;36891.73
1724924385.778;500;13.31;37525.27
1724924386.278;500;13.04;36613.20
1724924386.479;500;13.00;36482.60
1724924386.529;500;13.05;36646.40
1724924386.579;500;13.15;37008.27
1724924386.829;500;12.78;35755.46
1724924386.879;500;13.23;37262.27
1724924386.929;500;13.18;37089.87
1724924386.979;500;13.18;37089.87
1724924387.029;500;13.18;37089.87
1724924387.129;500;12.93;36237.60
1724924387.180;500;12.75;35657.33
1724924387.229;500;12.75;35657.33
1724924387.280;500;12.75;35657.33
1724924387.530;500;13.10;36819.87
1724924387.582;500;12.71;35502.00
1724924387.632;500;12.71;35502.00
1724924387.681;500;12.71;35502.00
1724924387.732;500;12.69;35433.93
1724924387.781;500;13.40;37855.46
1724924387.832;500;13.33;37618.33
1724924387.882;500;13.33;37618.33
1724924387.932;500;13.33;37618.33
1724924387.982;500;13.23;37282.54
1724924388.182;500;13.20;37166.27
1724924388.232;500;13.25;37344.80
1724924388.483;500;12.87;36050.40
1724924388.532;500;12.87;36050.40
1724924388.583;500;12.87;36050.40
1724924388.633;500;12.93;36234.67
1724924388.683;500;12.68;35390.27
1724924388.733;500;12.68;35390.27
1724924388.782;500;13.62;38574.40
1724924388.833;500;13.11;36857.93
1724924388.883;500;13.11;36857.93
1724924388.933;500;13.11;36857.93
1724924389.032;500;13.31;37532.00
1724924389.083;500;13.31;37532.00
1724924389.133;500;13.31;37532.00
1724924389.183;500;12.82;35873.60
1724924389.233;500;12.72;35524.13
1724924389.283;500;12.72;35524.13
1724924389.333;500;12.72;35524.13
1724924389.383;500;13.10;36835.73
1724924389.434;500;12.71;35493.20
1724924389.484;500;12.71;35493.20
1724924389.533;500;12.71;35493.20
1724924389.583;500;12.80;35812.93
1724924400.746;500;13.21;37208.80
1724924400.796;500;13.21;37208.80
1724924400.847;500;12.68;35417.07
1724924400.897;500;14.10;40202.80
1724924400.946;500;14.10;40202.80
1724924400.998;500;14.38;41167.73
1724924401.047;500;13.22;37238.93
1724924401.098;500;13.22;37238.93
1724924401.147;500;13.22;37238.93
1724924401.348;500;12.79;35784.27
1724924401.398;500;12.68;35396.46
1724924401.449;500;12.78;35735.60
1724924401.498;500;12.78;35735.60
1724924401.549;500;13.26;37352.67
1724924401.599;500;13.00;36474.80
1724924401.649;500;13.00;36474.80
1724924401.699;500;13.00;36474.80
1724924401.749;500;13.12;36884.27
1724924401.799;500;13.12;36884.27
1724924401.850;500;13.12;36884.27
1724924401.900;500;13.12;36884.27
1724924402.101;500;13.01;36532.46
1724924402.152;500;13.18;37086.13
1724924402.202;500;13.18;37086.13
1724924402.252;500;13.18;37086.13
1724924402.302;500;12.94;36289.07
1724924402.352;500;13.05;36651.33
1724924402.401;500;13.05;36651.33
1724924402.452;500;13.05;36651.33
1724924402.502;500;13.43;37939.20
1724924402.552;500;13.35;37670.67
1724924402.603;500;13.35;37670.67
1724924402.652;500;13.35;37670.67
1724924402.703;500;13.35;37670.67
1724924403.003;500;12.95;36333.46
1724924403.053;500;12.95;36333.46
1724924403.253;500;12.68;35396.00
1724924403.454;500;12.77;35708.00
1724924403.505;500;13.09;36801.20
1724924403.554;500;14.66;42094.40
1724924403.605;500;14.66;42094.40
1724924403.654;500;13.32;37568.13
1724924403.755;500;13.10;36823.73
1724924403.805;500;13.10;36823.73
1724924403.855;500;13.42;37922.80
1724924403.906;500;12.70;35461.60
1724924403.956;500;12.87;36057.87
1724924404.006;500;12.87;36057.87
1724924404.056;500;12.87;36057.87
1724924404.107;500;12.80;35809.87
1724924404.157;500;12.73;35580.54
1724924404.206;500;12.73;35580.54
1724924404.257;500;12.73;35580.54
1724924404.357;500;13.00;36503.54
1724924404.407;500;13.00;36503.54
1724924404.457;500;13.25;37345.46
1724924404.507;500;13.18;37083.73
1724924404.557;500;13.20;37164.54
1724924404.607;500;13.20;37164.54
1724924404.657;500;13.15;36990.07
1724924404.758;500;13.00;36485.60
1724924404.807;500;13.00;36485.60
1724924404.907;500;12.68;35415.60
1724924404.958;500;12.68;35415.60
1724924405.007;500;12.68;35415.60
1724924405.059;500;12.98;36416.54
1724924405.260;500;12.92;36233.60
1724924405.361;500;12.84;35950.13
1724924405.411;500;12.84;35950.13
1724924405.512;500;12.79;35770.67
1724924405.562;500;12.79;35770.67
1724924405.612;500;12.79;35770.67
1724924405.812;500;13.25;37326.40
1724924406.012;500;13.11;36863.73
1724924406.062;500;13.25;37316.46
1724924406.112;500;13.25;37316.46
1724924406.212;500;13.53;38270.27
1724924417.554;500;12.69;35447.33
1724924417.604;500;12.69;35447.33
1724924417.654;500;12.69;35447.33
1724924417.704;500;12.70;35486.20
1724924417.754;500;13.20;37157.46
1724924417.955;500;13.00;36499.87
1724924418.004;500;13.19;37128.80
1724924418.055;500;13.19;37128.80
1724924418.105;500;13.19;37128.80
1724924418.155;500;12.89;36127.46
1724924418.205;500;13.20;37165.60
1724924418.255;500;13.20;37165.60
1724924418.305;500;13.20;37165.60
1724924418.355;500;13.07;36721.60
1724924418.405;500;13.55;38348.13
1724924418.455;500;13.55;38348.13
1724924418.555;500;13.09;36792.00
1724924418.605;500;13.09;36792.00
1724924418.655;500;13.09;36792.00
1724924418.856;500;13.02;36541.07
1724924418.906;500;13.06;36676.00
1724924418.956;500;13.06;36676.00
1724924419.006;500;13.06;36676.00
1724924419.206;500;13.13;36911.87
1724924419.256;500;13.13;36911.87
1724924419.306;500;13.13;36911.87
1724924419.407;500;12.78;35744.67
1724924419.456;500;12.78;35744.67
1724924419.507;500;12.78;35744.67
1724924419.707;500;12.95;36305.60
1724924419.909;500;13.21;37207.46
1724924419.959;500;13.09;36779.46
1724924420.009;500;13.09;36779.46
1724924420.059;500;13.09;36779.46
1724924420.264;500;13.17;37073.60
1724924420.311;500;13.08;36765.33
1724924420.362;500;13.08;36765.33
1724924420.412;500;13.08;36765.33
1724924420.612;500;12.82;35888.00
1724924420.662;500;12.78;35747.46
1724924420.711;500;12.78;35747.46
1724924420.761;500;12.78;35747.46
1724924420.862;500;13.23;37260.93
1724924420.912;500;13.23;37260.93
1724924420.962;500;13.02;36545.73
1724924421.012;500;13.09;36784.13
1724924421.062;500;13.09;36784.13
1724924421.112;500;13.09;36784.13
1724924421.162;500;13.24;37286.40
1724924421.212;500;13.34;37644.13
1724924421.262;500;13.34;37644.13
1724924421.312;500;13.34;37644.13
1724924421.362;500;13.20;37156.40
1724924421.412;500;12.75;35637.87
1724924421.463;500;12.75;35637.87
1724924421.512;500;12.75;35637.87
1724924421.563;500;13.22;37237.60
1724924421.613;500;13.22;37237.60
1724924421.662;500;13.22;37237.60
1724924421.763;500;13.22;37224.27
1724924421.813;500;13.22;37224.27
1724924421.863;500;13.42;37897.87
1724924422.063;500;13.15;37002.27
1724924422.113;500;13.05;36653.87
1724924422.163;500;13.05;36653.87
1724924422.213;500;13.05;36653.87
1724924422.264;500;13.25;37324.27
1724924422.313;500;13.25;37324.27
1724924422.364;500;13.25;37324.27
1724924422.414;500;12.76;35665.73
1724924422.464;500;13.13;36938.40
1724924422.514;500;13.13;36938.40
1724924422.565;500;13.13;36938.40
1724924422.615;500;13.06;36683.60
1724924422.666;500;13.30;37491.07
1724924444.567;65;30.00;37260.00
1724924444.618;67;30.00;36900.40
1724924444.668;67;30.00;36900.40
1724924444.718;67;30.00;36900.40
1724924444.769;65;30.00;37325.07
1724924445.119;69;30.00;36328.33
1724924445.169;67;30.00;36724.40
1724924445.220;67;30.00;36724.40
1724924445.270;67;30.00;36724.40
1724924445.320;66;30.00;36997.73
1724924445.370;65;30.00;37382.40
1724924445.421;65;30.00;37382.40
1724924445.470;65;30.00;37382.40
1724924445.522;57;30.00;39325.20
1724924445.723;70;30.00;35944.00
1724924445.773;66;30.00;37108.54
1724924445.974;67;30.00;36940.00
1724924446.023;69;30.00;36168.27
1724924446.073;69;30.00;36168.27
1724924446.174;66;30.00;37076.80
1724924446.223;61;30.00;38326.73
1724924446.274;61;30.00;38326.73
1724924446.373;68;30.00;36508.40
1724924446.423;66;30.00;37130.54
1724924446.473;66;30.00;37130.54
1724924446.524;72;30.00;35586.80
1724924446.575;62;30.00;38109.33
1724924446.624;62;30.00;38109.33
1724924446.674;62;30.00;38109.33
1724924446.724;52;30.00;40698.00
1724924446.775;67;30.00;36915.20
1724924446.824;67;30.00;36915.20
1724924446.875;67;30.00;36915.20
1724924446.924;71;30.00;35768.00
1724924446.974;66;30.00;36970.67
1724924447.225;65;30.00;37384.80
1724924447.275;65;30.00;37384.80
1724924447.326;65;30.00;37384.80
1724924447.377;64;30.00;37670.73
1724924447.427;72;30.00;35630.13
1724924447.477;72;30.00;35630.13
1724924447.526;72;30.00;35630.13
1724924447.626;71;30.00;35869.20
1724924447.676;71;30.00;35820.67
1724924447.726;71;30.00;35820.67
1724924447.776;71;30.00;35820.67
1724924447.877;69;30.00;36391.20
1724924447.927;69;30.00;36412.00
1724924447.977;69;30.00;36412.00
1724924448.026;69;30.00;36412.00
1724924448.076;72;30.00;35385.60
1724924448.128;66;30.00;37047.87
1724924448.378;67;30.00;36915.46
1724924448.427;72;30.00;35427.07
1724924448.477;72;30.00;35427.07
1724924448.528;48;30.00;41710.60
1724924448.628;67;30.00;36942.67
1724924448.678;67;30.00;36942.67
1724924448.728;67;30.00;36942.67
1724924448.779;69;30.00;36394.80
1724924448.979;70;30.00;35945.87
1724924449.029;63;30.00;37950.40
1724924449.080;63;30.00;37950.40
1724924449.481;67;30.00;36938.40
1724924449.533;69;30.00;36388.67
1724924449.583;69;30.00;36388.67
1724924449.633;69;30.00;36388.67
1724924449.683;65;30.00;37317.87
1724924449.884;37;30.00;44781.87
1724924450.434;66;30.00;37140.54
1724924461.160;65;30.00;37215.20
1724924461.209;66;30.00;37164.00
1724924461.260;66;30.00;37164.00
1724924461.309;67;30.00;36822.93
1724924461.360;70;30.00;36090.67
1724924461.409;70;30.00;36090.67
1724924461.459;70;30.00;36090.67
1724924461.509;66;30.00;37064.00
1724924461.560;66;30.00;37064.00
1724924461.609;68;30.00;36517.07
1724924461.962;66;30.00;37026.67
1724924462.012;68;30.00;36483.40
1724924462.062;68;30.00;36483.40
1724924462.112;65;30.00;37312.54
1724924462.162;71;30.00;35886.13
1724924462.212;71;30.00;35886.13
1724924462.262;71;30.00;35886.13
1724924462.462;72;30.00;35464.67
1724924462.512;72;30.00;35464.67
1724924462.562;72;30.00;35464.67
1724924462.612;66;30.00;36976.27
1724924462.662;67;30.00;36898.67
1724924462.712;67;30.00;36898.67
1724924462.762;67;30.00;36898.67
1724924462.812;68;30.00;36526.40
1724924462.862;72;30.00;35522.00
1724924462.912;72;30.00;35522.00
1724924462.962;72;30.00;35522.00
1724924463.212;71;30.00;35660.54
1724924463.262;71;30.00;35660.54
1724924463.312;71;30.00;35660.54
1724924463.362;72;30.00;35620.07
1724924463.412;72;30.00;35620.07
1724924463.463;72;30.00;35620.07
1724924463.512;65;30.00;37238.00
1724924463.563;65;30.00;37238.00
1724924463.612;65;30.00;37238.00
1724924463.662;61;30.00;38289.07
1724924463.813;66;30.00;36963.80
1724924463.913;68;30.00;36591.73
1724924463.964;68;30.00;36591.73
1724924464.014;68;30.00;36510.73
1724924464.064;66;30.00;37055.13
1724924464.113;72;30.00;35446.40
1724924464.164;72;30.00;35446.40
1724924464.213;64;30.00;37667.33
1724924464.265;65;30.00;37243.67
1724924464.314;59;30.00;38962.40
1724924464.365;59;30.00;38962.40
1724924464.415;32;30.00;45958.13
1724924464.615;68;30.00;36519.20
1724924464.666;68;30.00;36519.20
1724924464.715;68;30.00;36519.20
1724924464.765;71;30.00;35667.87
1724924464.815;64;30.00;37475.46
1724924464.865;64;30.00;37475.46
1724924464.967;69;30.00;36296.13
1724924465.016;69;30.00;36296.13
1724924465.066;69;30.00;36296.13
1724924465.116;66;30.00;36962.13
1724924465.267;67;30.00;36766.54
1724924465.316;67;30.00;36807.20
1724924465.367;67;30.00;36807.20
1724924465.417;67;30.00;36807.20
1724924465.467;71;30.00;35830.40
1724924465.517;71;30.00;35830.40
1724924465.567;71;30.00;35830.40
1724924465.618;69;30.00;36314.27
1724924465.668;70;30.00;35921.33
1724924465.718;70;30.00;35921.33
1724924465.768;70;30.00;35921.33
1724924465.819;62;30.00;38050.80
1724924465.869;64;30.00;37724.40
1724924465.919;64;30.00;37724.40
1724924465.969;64;30.00;37724.40
1724924466.019;68;30.00;36600.00
1724924466.069;66;30.00;37080.80
1724924466.120;66;30.00;37080.80
1724924466.170;66;30.00;37080.80
1724924466.221;71;30.00;35884.00
1724924476.796;52;30.00;40792.00
1724924477.046;72;30.00;35471.20
1724924477.096;67;30.00;36935.20
1724924477.146;67;30.00;36935.20
1724924477.196;72;30.00;35401.60
1724924477.546;69;30.00;36201.07
1724924477.596;67;30.00;36790.67
1724924477.646;67;30.00;36790.67
1724924477.696;68;30.00;36515.73
1724924477.748;66;30.00;37060.93
1724924477.798;66;30.00;37060.93
1724924477.848;66;30.00;37060.93
1724924477.899;70;30.00;36154.67
1724924477.949;64;30.00;37682.00
1724924477.999;64;30.00;37682.00
1724924478.049;64;30.00;37682.00
1724924478.100;66;30.00;37132.00
1724924478.149;72;30.00;35636.93
1724924478.300;67;30.00;36756.40
1724924478.349;67;30.00;36856.27
1724924478.400;67;30.00;36856.27
1724924478.451;67;30.00;36856.27
1724924478.550;46;30.00;42180.27
1724924478.601;46;30.00;42180.27
1724924478.650;46;30.00;42180.27
1724924478.700;66;30.00;37098.67
1724924478.750;70;30.00;35939.73
1724924478.800;70;30.00;35939.73
1724924478.852;63;30.00;37960.73
1724924478.902;64;30.00;37615.46
1724924478.952;71;30.00;35838.67
1724924479.003;71;30.00;35838.67
1724924479.052;72;30.00;35539.07
1724924479.103;71;30.00;35677.00
1724924479.153;67;30.00;36774.13
1724924479.203;67;30.00;36774.13
1724924479.253;70;30.00;36045.60
1724924479.304;70;30.00;35970.93
1724924479.505;58;30.00;39124.27
1724924479.654;68;30.00;36501.60
1724924479.705;67;30.00;36711.13
1724924479.755;67;30.00;36711.13
1724924479.804;67;30.00;36711.13
1724924479.856;66;30.00;37112.40
1724924479.906;66;30.00;37112.40
1724924479.956;66;30.00;37112.40
1724924480.055;48;30.00;41730.60
1724924480.107;48;30.00;41730.60
1724924480.156;65;30.00;37224.27
1724924480.256;72;30.00;35444.00
1724924480.307;72;30.00;35444.00
1724924480.356;68;30.00;36432.80
1724924480.556;65;30.00;37235.46
1724924480.607;65;30.00;37235.46
1724924480.656;65;30.00;37235.46
1724924480.707;69;30.00;36387.54
1724924480.756;69;30.00;36387.54
1724924480.807;69;30.00;36387.54
1724924480.907;72;30.00;35522.80
1724924481.059;71;30.00;35679.07
1724924481.107;66;30.00;37074.67
1724924481.307;69;30.00;36396.93
1724924481.458;71;30.00;35671.46
1724924481.508;64;30.00;37675.46
1724924481.558;67;30.00;36836.27
1724924481.608;67;30.00;36836.27
1724924481.658;67;30.00;36836.27
1724924481.759;48;30.00;41870.27
1724924481.808;48;30.00;41870.27
1724924481.858;71;30.00;35647.20
1724924481.908;68;30.00;36573.60
1724924481.959;70;30.00;36164.00
1724924482.015;70;30.00;36164.00
1724924482.062;71;30.00;35867.20
1724924482.112;68;30.00;36505.20
1724924482.263;67;30.00;36874.13
1724924589.310;350;12.21;35375.40
1724924589.362;350;12.87;36378.13
1724924589.412;350;12.87;36378.13
1724924589.462;350;12.87;36378.13
1724924589.512;350;13.24;36944.13
1724924589.562;350;12.50;35815.80
1724924589.612;350;12.50;35815.80
1724924589.662;350;12.50;35815.80
1724924589.712;350;12.98;36550.80
1724924589.762;350;11.85;34827.46
1724924589.812;350;11.85;34827.46
1724924589.862;350;12.05;35131.80
1724924589.912;350;12.73;36157.54
1724924589.962;350;11.42;34167.13
1724924590.013;350;11.42;34167.13
1724924590.063;350;11.84;34808.07
1724924590.114;350;13.09;36716.67
1724924590.163;350;13.09;36716.67
1724924590.214;350;13.09;36716.67
1724924590.264;350;12.99;36558.67
1724924590.314;350;12.90;36420.27
1724924590.364;350;12.90;36420.27
1724924590.415;350;12.90;36420.27
1724924590.464;350;13.05;36653.67
1724924590.514;350;13.05;36653.67
1724924590.565;350;13.05;36653.67
1724924590.615;350;12.84;36332.33
1724924590.666;350;11.97;35006.27
1724924590.716;350;11.72;34631.33
1724924590.767;350;11.72;34631.33
1724924590.817;350;11.78;34719.80
1724924590.867;350;12.84;36325.27
1724924590.918;350;12.84;36325.27
1724924590.969;350;12.84;36325.27
1724924591.019;350;12.14;35268.67
1724924591.069;350;13.22;36918.27
1724924591.119;350;13.22;36918.27
1724924591.170;350;13.22;36918.27
1724924591.221;350;12.86;36362.67
1724924591.271;350;12.05;35131.67
1724924591.321;350;12.05;35131.67
1724924591.372;350;12.35;35585.20
1724924591.422;350;12.94;36489.73
1724924591.472;350;12.86;36365.07
1724924591.523;350;12.86;36365.07
1724924591.572;350;13.42;37222.80
1724924591.622;350;12.43;35703.73
1724924591.672;350;13.22;36913.00
1724924591.723;350;13.22;36913.00
1724924591.773;350;13.35;37104.00
1724924591.823;350;12.78;36243.80
1724924591.873;350;11.73;34638.27
1724924591.923;350;11.73;34638.27
1724924591.973;350;12.10;35199.80
1724924592.023;350;11.71;34605.27
1724924592.074;350;11.57;34399.46
1724924592.123;350;11.57;34399.46
1724924592.173;350;11.57;34399.46
1724924592.223;350;12.67;36070.87
1724924592.273;350;12.24;35416.33
1724924592.323;350;12.24;35416.33
1724924592.374;350;12.24;35416.33
1724924592.423;350;11.96;34993.80
1724924592.473;350;12.68;36083.13
1724924592.523;350;12.68;36083.13
1724924592.573;350;12.68;36083.13
1724924592.623;350;12.64;36032.73
1724924592.673;350;12.12;35240.07
1724924592.724;350;12.12;35240.07
1724924592.774;350;12.12;35240.07
1724924592.823;350;12.12;35240.07
1724924592.873;350;12.15;35278.33
1724924592.925;350;12.17;35313.93
1724924592.975;350;12.17;35313.93
1724924593.024;350;12.17;35313.93
1724924593.074;350;11.45;34221.54
1724924593.125;350;11.64;34504.40
1724924593.175;350;11.61;34464.46
1724924593.225;350;11.61;34464.46
1724924593.275;350;12.34;35574.33
1724924593.324;350;11.98;35021.73
1724924593.375;350;12.61;35978.54
1724924593.425;350;12.61;35978.54
1724924593.475;350;12.61;35978.54
1724924593.525;350;12.19;35346.60
1724924593.575;350;12.88;36392.67
1724924593.625;350;12.88;36392.67
1724924593.676;350;12.88;36392.67
1724924593.726;350;11.79;34730.33
1724924593.775;350;11.71;34615.60
1724924593.826;350;11.71;34615.60
1724924593.876;350;11.71;34615.60
1724924593.977;350;11.93;34945.33
1724924594.027;350;11.93;34945.33
1724924594.078;350;11.93;34945.33
1724924594.128;350;11.93;34945.33
1724924594.179;350;12.87;36379.67
1724924594.228;350;13.95;38017.33
1724924594.278;350;13.95;38017.33
1724924594.328;350;13.95;38017.33
1724924594.378;350;12.91;36445.73
1724924594.430;350;12.06;35142.20
1724924594.481;350;12.06;35142.20
1724924594.530;350;12.97;36535.33
1724924594.580;350;12.85;36352.93
1724924594.630;350;12.85;36352.93
1724924594.680;350;12.85;36352.93
1724924594.731;350;12.38;35630.13
1724924594.780;350;12.94;36479.60
1724924594.830;350;12.94;36479.60
1724924594.882;350;12.94;36479.60
1724924594.932;350;12.82;36297.67
1724924594.982;350;11.72;34620.27
1724924595.032;350;11.72;34620.27
1724924595.082;350;11.72;34620.27
1724924595.133;350;12.23;35399.40
