UnixTimestamp;Microseconds;MilliAmpere;BaseValue
1725881465.531;500;1.00
1725881465.578;500;1.00
1725881465.630;500;1.00
1725881465.679;500;1.00
1725881465.729;500;1.00
1725881465.780;500;1.00
1725881465.831;500;1.00
1725881465.881;500;1.00
1725881465.930;500;1.00
1725881465.981;500;1.00
1725881466.031;500;1.00
1725881466.081;500;1.00
1725881466.132;500;1.00
1725881466.181;500;1.00
1725881466.231;500;1.00
1725881466.281;500;1.00
1725881466.331;500;1.00
1725881466.381;500;1.00
1725881470.318;1;40.00
1725881470.368;1;40.00
1725881470.418;1;40.00
1725881470.469;1;40.00
1725881470.519;1;40.00
1725881470.569;1;40.00
1725881470.619;1;40.00
1725881470.670;1;40.00
1725881470.720;1;40.00
1725881470.769;1;40.00
1725881470.820;1;40.00
1725881470.870;1;40.00
1725881470.920;1;40.00
1725881470.970;1;40.00
1725881471.020;1;40.00
1725881471.070;1;40.00
1725881471.120;1;40.00
1725881519.825;200;29.69;34352.93
1725881519.876;200;30.84;34943.27
1725881519.927;200;30.84;34943.27
1725881519.977;200;30.84;34943.27
1725881520.026;200;37.70;38456.40
1725881520.076;200;37.70;38456.40
1725881520.126;200;37.70;38456.40
1725881520.177;200;32.30;35690.40
1725881520.227;200;32.01;35541.40
1725881520.277;200;32.01;35541.40
1725881520.327;200;29.16;34081.13
1725881520.377;200;29.90;34461.33
1725881520.427;200;29.90;34461.33
1725881520.477;200;29.90;34461.33
1725881520.527;200;32.13;35603.87
1725881520.577;200;32.13;35603.87
1725881520.626;200;32.13;35603.87
1725881520.727;200;32.16;35616.54
1725881520.777;200;32.16;35616.54
1725881520.827;200;32.36;35720.00
1725881520.928;200;32.97;36034.00
1725881520.978;200;32.97;36034.00
1725881521.027;200;30.09;34556.27
1725881521.077;200;29.53;34271.13
1725881521.127;200;29.53;34271.13
1725881521.178;200;29.53;34271.13
1725881521.227;200;30.73;34886.67
1725881521.278;200;30.73;34886.67
1725881521.328;200;30.73;34886.67
1725881521.379;200;30.73;34886.67
1725881521.429;200;30.49;34763.87
1725881521.479;200;30.49;34763.87
1725881521.528;200;30.49;34763.87
1725881521.579;200;37.46;38333.73
1725881521.628;200;35.15;37149.00
1725881521.678;200;35.15;37149.00
1725881521.730;200;33.81;36462.46
1725881521.780;200;28.53;33756.27
1725881521.830;200;29.44;34221.40
1725881521.880;200;29.44;34221.40
1725881521.930;200;29.82;34417.20
1725881521.979;200;37.30;38250.33
1725881522.030;200;37.30;38250.33
1725881522.081;200;37.30;38250.33
1725881522.130;200;31.33;35190.54
1725881522.180;200;30.94;34993.33
1725881522.230;200;30.94;34993.33
1725881522.281;200;30.94;34993.33
1725881522.330;200;37.06;38129.33
1725881522.381;200;35.37;37260.80
1725881522.430;200;35.37;37260.80
1725881522.481;200;35.37;37260.80
1725881522.531;200;31.15;35097.87
1725881522.582;200;31.15;35097.87
1725881522.632;200;31.15;35097.87
1725881522.682;200;31.77;35418.93
1725881522.732;200;37.76;38489.46
1725881522.782;200;37.76;38489.46
1725881522.832;200;37.53;38370.80
1725881522.882;200;36.17;37674.33
1725881522.932;200;36.17;37674.33
1725881522.982;200;36.17;37674.33
1725881523.032;200;38.00;38611.00
1725881523.082;200;32.86;35977.87
1725881523.132;200;32.86;35977.87
1725881523.182;200;32.86;35977.87
1725881523.232;200;32.77;35929.27
1725881523.282;200;32.77;35929.27
1725881523.332;200;32.73;35908.60
1725881523.384;200;31.08;35065.73
1725881523.433;200;31.08;35065.73
1725881523.483;200;31.08;35065.73
1725881523.538;200;31.47;35265.07
1725881523.585;200;37.64;38428.07
1725881523.636;200;35.69;37425.07
1725881523.686;200;35.69;37425.07
1725881523.735;200;38.00;38611.00
1725881523.786;200;37.94;38581.20
1725881523.835;200;37.94;38581.20
1725881523.886;200;37.94;38581.20
1725881523.936;200;34.83;36984.13
1725881523.986;200;37.36;38283.40
1725881524.036;200;37.36;38283.40
1725881524.086;200;37.36;38283.40
1725881524.135;200;31.97;35519.60
1725881524.186;200;31.97;35519.60
1725881524.236;200;31.97;35519.60
1725881524.285;200;31.41;35230.87
1725881524.337;200;33.21;36158.40
1725881524.387;200;33.21;36158.40
1725881524.436;200;31.83;35448.20
1725881524.486;200;34.61;36872.33
1725881535.067;200;28.89;33943.20
1725881535.117;200;28.89;33943.20
1725881535.167;200;31.65;35356.87
1725881535.216;200;30.08;34550.13
1725881535.267;200;30.08;34550.13
1725881535.317;200;30.08;34550.13
1725881535.367;200;32.56;35824.27
1725881535.417;200;32.56;35824.27
1725881535.467;200;32.56;35824.27
1725881535.517;200;33.09;36092.67
1725881535.567;200;33.09;36092.67
1725881535.617;200;33.09;36092.67
1725881535.667;200;33.58;36347.13
1725881535.717;200;33.58;36347.13
1725881535.767;200;33.58;36347.13
1725881535.968;200;30.19;34607.00
1725881536.019;200;29.34;34173.87
1725881536.069;200;29.34;34173.87
1725881536.118;200;29.34;34173.87
1725881536.169;200;30.67;34856.20
1725881536.219;200;35.84;37501.54
1725881536.268;200;35.84;37501.54
1725881536.318;200;35.84;37501.54
1725881536.368;200;29.83;34421.13
1725881536.418;200;29.83;34421.13
1725881536.469;200;29.83;34421.13
1725881536.518;200;29.83;34421.13
1725881536.569;200;32.99;36041.33
1725881536.618;200;32.99;36041.33
1725881536.668;200;32.99;36041.33
1725881536.719;200;28.75;33871.33
1725881536.768;200;32.88;35987.80
1725881536.819;200;32.88;35987.80
1725881536.868;200;32.88;35987.80
1725881536.918;200;37.94;38579.20
1725881536.968;200;36.82;38004.07
1725881537.019;200;36.82;38004.07
1725881537.068;200;29.88;34447.20
1725881537.119;200;38.00;38611.00
1725881537.169;200;38.00;38611.00
1725881537.219;200;38.00;38611.00
1725881537.269;200;35.14;37146.13
1725881537.318;200;35.14;37146.13
1725881537.369;200;35.14;37146.13
1725881537.419;200;32.90;35994.87
1725881537.469;200;28.71;33850.00
1725881537.519;200;28.71;33850.00
1725881537.568;200;28.71;33850.00
1725881537.619;200;33.66;36387.33
1725881537.669;200;35.97;37570.40
1725881537.719;200;35.97;37570.40
1725881537.769;200;33.75;36431.33
1725881537.819;200;33.85;36481.46
1725881537.870;200;33.85;36481.46
1725881537.920;200;33.85;36481.46
1725881537.970;200;33.98;36548.87
1725881538.020;200;33.98;36548.87
1725881538.070;200;33.98;36548.87
1725881538.120;200;32.17;35620.67
1725881538.170;200;32.17;35620.67
1725881538.220;200;32.17;35620.67
1725881538.270;200;31.22;35137.33
1725881538.320;200;37.99;38603.33
1725881538.370;200;37.99;38603.33
1725881538.420;200;37.99;38603.33
1725881538.470;200;30.34;34682.67
1725881538.520;200;30.34;34682.67
1725881538.570;200;30.34;34682.67
1725881538.620;200;37.02;38107.07
1725881538.670;200;37.02;38107.07
1725881538.721;200;34.50;36815.07
1725881538.770;200;36.86;38028.93
1725881538.821;200;36.86;38028.93
1725881538.870;200;34.26;36693.07
1725881538.921;200;31.30;35175.07
1725881538.970;200;30.70;34870.80
1725881539.021;200;30.70;34870.80
1725881539.071;200;28.95;33973.27
1725881539.121;200;32.42;35749.54
1725881539.171;200;32.42;35749.54
1725881539.221;200;32.42;35749.54
1725881539.271;200;35.43;37293.73
1725881539.320;200;36.23;37701.27
1725881539.372;200;36.23;37701.27
1725881539.421;200;36.23;37701.27
1725881539.471;200;31.69;35377.40
1725881550.305;200;32.59;35838.73
1725881550.356;200;32.59;35838.73
1725881550.405;200;32.59;35838.73
1725881550.606;200;36.05;37611.07
1725881550.655;200;30.19;34606.80
1725881550.706;200;30.19;34606.80
1725881550.756;200;30.19;34606.80
1725881550.806;200;28.71;33848.27
1725881550.856;200;29.39;34195.60
1725881550.906;200;29.39;34195.60
1725881550.956;200;30.09;34557.60
1725881551.007;200;32.71;35901.67
1725881551.056;200;32.71;35901.67
1725881551.107;200;33.14;36121.60
1725881551.156;200;30.50;34768.80
1725881551.207;200;30.50;34768.80
1725881551.257;200;32.77;35929.40
1725881551.307;200;34.30;36715.80
1725881551.357;200;34.30;36715.80
1725881551.409;200;30.37;34702.67
1725881551.458;200;35.93;37550.67
1725881551.509;200;35.93;37550.67
1725881551.558;200;36.74;37966.13
1725881551.609;200;31.70;35381.54
1725881551.658;200;31.70;35381.54
1725881551.708;200;31.70;35381.54
1725881551.758;200;30.90;34971.46
1725881551.809;200;30.90;34971.46
1725881551.858;200;31.53;35293.73
1725881551.910;200;35.67;37419.07
1725881551.960;200;35.67;37419.07
1725881552.010;200;35.67;37419.07
1725881552.060;200;31.63;35347.60
1725881552.110;200;37.31;38256.73
1725881552.161;200;37.31;38256.73
1725881552.211;200;37.31;38256.73
1725881552.262;200;34.55;36840.27
1725881552.311;200;36.83;38010.60
1725881552.361;200;36.83;38010.60
1725881552.412;200;36.86;38025.27
1725881552.463;200;33.31;36204.67
1725881552.512;200;33.31;36204.67
1725881552.563;200;33.31;36204.67
1725881552.613;200;30.43;34730.40
1725881552.662;200;29.93;34475.40
1725881552.712;200;29.93;34475.40
1725881552.763;200;29.39;34195.73
1725881552.813;200;36.17;37674.13
1725881552.864;200;36.17;37674.13
1725881552.915;200;36.17;37674.13
1725881552.964;200;29.20;34100.33
1725881553.015;200;29.15;34075.73
1725881553.065;200;29.15;34075.73
1725881553.116;200;29.50;34255.07
1725881553.166;200;32.34;35708.07
1725881553.216;200;32.34;35708.07
1725881553.266;200;32.34;35708.07
1725881553.320;200;37.19;38195.67
1725881553.366;200;36.66;37924.20
1725881553.416;200;36.66;37924.20
1725881553.466;200;36.66;37924.20
1725881553.515;200;29.35;34178.67
1725881553.565;200;28.44;33713.46
1725881553.616;200;29.93;34476.00
1725881553.665;200;29.93;34476.00
1725881553.715;200;30.45;34740.00
1725881553.765;200;30.66;34848.33
1725881553.816;200;30.66;34848.33
1725881553.866;200;30.66;34848.33
1725881553.915;200;29.38;34194.27
1725881553.966;200;33.58;36348.00
1725881554.016;200;33.58;36348.00
1725881554.066;200;33.58;36348.00
1725881554.115;200;36.54;37862.20
1725881554.165;200;29.62;34315.73
1725881554.215;200;29.62;34315.73
1725881554.266;200;32.55;35816.27
1725881554.316;200;35.73;37445.54
1725881732.265;102;30.00;37341.93
1725881732.315;102;30.00;37341.93
1725881732.365;102;30.00;37341.93
1725881732.414;254;30.00;34353.33
1725881732.466;239;30.00;34639.33
1725881732.515;239;30.00;34639.33
1725881732.566;239;30.00;34639.33
1725881732.665;289;30.00;33667.33
1725881732.715;289;30.00;33667.33
1725881732.765;195;30.00;35516.07
1725881732.816;214;30.00;35139.33
1725881732.865;214;30.00;35139.33
1725881732.915;214;30.00;35139.33
1725881732.965;182;30.00;35764.93
1725881733.015;103;30.00;37326.33
1725881733.065;103;30.00;37326.33
1725881733.115;103;30.00;37326.33
1725881733.166;124;30.00;36916.54
1725881733.217;137;30.00;36647.80
1725881733.266;137;30.00;36647.80
1725881733.316;160;30.00;36193.27
1725881733.367;199;30.00;35426.20
1725881733.416;199;30.00;35426.20
1725881733.466;199;30.00;35426.20
1725881733.517;285;30.00;33743.07
1725881733.567;285;30.00;33743.07
1725881733.617;285;30.00;33743.07
1725881733.666;220;30.00;35012.60
1725881733.716;229;30.00;34852.60
1725881733.766;229;30.00;34852.60
1725881733.817;229;30.00;34852.60
1725881733.867;102;30.00;37341.46
1725881733.917;222;30.00;34980.80
1725881733.966;222;30.00;34980.80
1725881734.017;222;30.00;34980.80
1725881734.067;247;30.00;34497.60
1725881734.117;231;30.00;34810.00
1725881734.168;231;30.00;34810.00
1725881734.218;207;30.00;35274.00
1725881734.267;150;30.00;36393.46
1725881734.318;75;30.00;37882.73
1725881734.368;75;30.00;37882.73
1725881734.417;81;30.00;37760.07
1725881734.468;212;30.00;35183.20
1725881734.518;212;30.00;35183.20
1725881734.568;212;30.00;35183.20
1725881734.618;69;30.00;37991.93
1725881734.668;212;30.00;35169.73
1725881734.719;212;30.00;35169.73
1725881734.769;212;30.00;35169.73
1725881734.819;104;30.00;37298.54
1725881734.869;187;30.00;35669.67
1725881734.920;187;30.00;35669.67
1725881734.970;187;30.00;35669.67
1725881735.020;197;30.00;35479.87
1725881735.070;190;30.00;35615.93
1725881735.120;190;30.00;35615.93
1725881735.170;190;30.00;35615.93
1725881735.220;212;30.00;35173.20
1725881735.270;212;30.00;35173.20
1725881735.320;212;30.00;35173.20
1725881735.370;176;30.00;35877.20
1725881735.420;199;30.00;35434.93
1725881735.471;199;30.00;35434.93
1725881735.523;199;30.00;35434.93
1725881735.571;242;30.00;34588.27
1725881735.622;284;30.00;33763.20
1725881735.673;284;30.00;33763.20
1725881735.722;284;30.00;33763.20
1725881735.773;56;30.00;38243.27
1725881735.822;218;30.00;35065.27
1725881735.872;218;30.00;35065.27
1725881735.922;218;30.00;35065.27
1725881735.972;177;30.00;35857.33
1725881736.022;188;30.00;35659.80
1725881736.072;188;30.00;35659.80
1725881736.122;188;30.00;35659.80
1725881736.172;112;30.00;37137.93
1725881736.223;263;30.00;34168.67
1725881736.272;263;30.00;34168.67
1725881736.323;263;30.00;34168.67
1725881736.372;207;30.00;35271.87
1725881736.423;38;30.00;38611.00
1725881736.472;38;30.00;38611.00
1725881736.524;38;30.00;38611.00
1725881736.574;279;30.00;33852.33
1725881736.624;130;30.00;36785.54
1725881736.675;130;30.00;36785.54
1725881736.725;130;30.00;36785.54
1725881736.775;88;30.00;37627.00
1725881736.824;82;30.00;37730.20
1725881736.874;83;30.00;37716.60
1725881736.925;83;30.00;37716.60
1725881736.975;83;30.00;37716.60
1725881737.026;195;30.00;35504.13
1725881737.077;195;30.00;35504.13
1725881737.127;195;30.00;35504.13
1725881737.177;111;30.00;37163.40
1725881737.227;230;30.00;34819.00
1725881737.277;230;30.00;34819.00
1725881737.327;230;30.00;34819.00
1725881737.377;225;30.00;34919.07
1725881748.474;286;30.00;33713.07
1725881748.524;286;30.00;33713.07
1725881748.573;286;30.00;33713.07
1725881748.623;142;30.00;36564.87
1725881748.674;185;30.00;35710.80
1725881748.723;185;30.00;35710.80
1725881748.774;185;30.00;35701.20
1725881748.824;193;30.00;35550.93
1725881748.873;193;30.00;35550.93
1725881748.924;193;30.00;35550.93
1725881748.974;209;30.00;35240.87
1725881749.025;62;30.00;38134.54
1725881749.075;62;30.00;38134.54
1725881749.125;62;30.00;38134.54
1725881749.175;114;30.00;37100.00
1725881749.224;114;30.00;37100.00
1725881749.275;114;30.00;37100.00
1725881749.325;241;30.00;34606.54
1725881749.375;218;30.00;35064.20
1725881749.425;218;30.00;35064.20
1725881749.474;218;30.00;35064.20
1725881749.575;257;30.00;34286.46
1725881749.624;257;30.00;34286.46
1725881749.674;209;30.00;35243.27
1725881749.725;254;30.00;34350.60
1725881749.774;204;30.00;35327.67
1725881749.824;204;30.00;35327.67
1725881749.874;215;30.00;35125.20
1725881749.925;215;30.00;35112.07
1725881749.975;215;30.00;35112.07
1725881750.024;215;30.00;35112.07
1725881750.075;219;30.00;35043.67
1725881750.125;43;30.00;38495.07
1725881750.176;201;30.00;35386.54
1725881750.225;201;30.00;35386.54
1725881750.276;192;30.00;35562.93
1725881750.325;205;30.00;35310.46
1725881750.375;276;30.00;33921.73
1725881750.425;276;30.00;33921.73
1725881750.476;234;30.00;34741.00
1725881750.576;210;30.00;35218.33
1725881750.625;210;30.00;35218.33
1725881750.676;70;30.00;37967.33
1725881750.725;45;30.00;38460.67
1725881750.775;45;30.00;38460.67
1725881750.825;45;30.00;38460.67
1725881750.876;131;30.00;36765.33
1725881750.927;81;30.00;37756.54
1725881750.976;81;30.00;37756.54
1725881751.027;81;30.00;37756.54
1725881751.077;177;30.00;35864.60
1725881751.127;177;30.00;35864.60
1725881751.176;177;30.00;35864.60
1725881751.234;177;30.00;35864.60
1725881751.277;178;30.00;35838.93
1725881751.327;216;30.00;35102.93
1725881751.378;216;30.00;35102.93
1725881751.427;264;30.00;34153.46
1725881751.478;262;30.00;34197.46
1725881751.527;262;30.00;34197.46
1725881751.578;262;30.00;34197.46
1725881751.628;224;30.00;34937.80
1725881751.678;155;30.00;36290.60
1725881751.729;155;30.00;36290.60
1725881751.779;155;30.00;36290.60
1725881751.829;132;30.00;36759.07
1725881751.879;203;30.00;35354.93
1725881751.930;203;30.00;35354.93
1725881751.980;203;30.00;35354.93
1725881752.029;186;30.00;35680.80
1725881752.080;186;30.00;35680.80
1725881752.130;186;30.00;35680.80
1725881752.181;219;30.00;35047.46
1725881752.235;172;30.00;35965.00
1725881752.282;172;30.00;35965.00
1725881752.332;172;30.00;35965.00
1725881752.382;45;30.00;38466.87
1725881752.431;87;30.00;37627.80
1725881752.482;87;30.00;37627.80
1725881752.531;87;30.00;37627.80
1725881752.581;117;30.00;37041.73
1725881752.632;98;30.00;37413.93
1725881752.682;98;30.00;37413.93
1725881752.732;98;30.00;37413.93
1725881752.782;200;30.00;35421.40
1725881752.832;177;30.00;35869.33
1725881752.882;177;30.00;35869.33
1725881752.933;177;30.00;35869.33
1725881752.982;103;30.00;37320.00
1725881753.032;91;30.00;37551.00
1725881753.083;91;30.00;37551.00
1725881753.132;91;30.00;37551.00
1725881753.182;151;30.00;36373.80
1725881753.232;170;30.00;36012.60
1725881753.282;170;30.00;36012.60
1725881753.332;170;30.00;36012.60
1725881753.383;218;30.00;35068.00
1725881753.433;177;30.00;35863.60
1725881753.483;177;30.00;35863.60
1725881753.533;177;30.00;35863.60
1725881753.583;204;30.00;35326.80
1725881764.574;285;30.00;33740.87
1725881764.625;278;30.00;33889.33
1725881764.674;272;30.00;33999.07
1725881764.725;272;30.00;33999.07
1725881764.775;195;30.00;35502.73
1725881764.825;267;30.00;34095.73
1725881764.875;267;30.00;34095.73
1725881764.925;267;30.00;34095.73
1725881764.975;267;30.00;34090.67
1725881765.026;267;30.00;34090.67
1725881765.075;267;30.00;34090.67
1725881765.176;129;30.00;36819.40
1725881765.227;129;30.00;36819.40
1725881765.277;129;30.00;36819.40
1725881765.377;50;30.00;38370.54
1725881765.428;50;30.00;38370.54
1725881765.477;123;30.00;36931.46
1725881765.528;98;30.00;37416.60
1725881765.578;98;30.00;37416.60
1725881765.627;98;30.00;37416.60
1725881765.679;184;30.00;35724.13
1725881765.728;184;30.00;35724.13
1725881765.780;184;30.00;35724.13
1725881765.829;193;30.00;35550.00
1725881765.879;38;30.00;38607.87
1725881765.929;38;30.00;38607.87
1725881765.979;38;30.00;38607.87
1725881766.029;116;30.00;37073.27
1725881766.079;190;30.00;35620.00
1725881766.129;190;30.00;35620.00
1725881766.179;157;30.00;36250.20
1725881766.229;171;30.00;35984.54
1725881766.279;240;30.00;34633.54
1725881766.329;240;30.00;34633.54
1725881766.379;203;30.00;35360.73
1725881766.429;127;30.00;36851.93
1725881766.479;184;30.00;35727.60
1725881766.530;184;30.00;35727.60
1725881766.580;243;30.00;34559.13
1725881766.630;65;30.00;38071.00
1725881766.680;257;30.00;34301.07
1725881766.729;257;30.00;34301.07
1725881766.779;257;30.00;34301.07
1725881766.830;246;30.00;34516.07
1725881766.880;48;30.00;38409.46
1725881766.930;48;30.00;38409.46
1725881766.980;233;30.00;34774.27
1725881767.030;275;30.00;33941.60
1725881767.180;214;30.00;35143.07
1725881767.231;214;30.00;35143.07
1725881767.281;214;30.00;35143.07
1725881767.339;252;30.00;34397.33
1725881767.381;59;30.00;38181.13
1725881767.431;59;30.00;38181.13
1725881767.481;59;30.00;38181.13
1725881767.532;217;30.00;35084.60
1725881767.581;202;30.00;35378.46
1725881767.632;202;30.00;35378.46
1725881767.681;202;30.00;35378.46
1725881767.731;192;30.00;35571.40
1725881767.782;99;30.00;37404.60
1725881767.832;99;30.00;37404.60
1725881767.881;99;30.00;37404.60
1725881767.931;171;30.00;35988.40
1725881767.982;38;30.00;38611.00
1725881768.031;38;30.00;38611.00
1725881768.082;38;30.00;38611.00
1725881768.131;197;30.00;35472.00
1725881768.181;100;30.00;37378.54
1725881768.231;100;30.00;37378.54
1725881768.281;100;30.00;37378.54
1725881768.331;128;30.00;36823.13
1725881768.382;196;30.00;35490.20
1725881768.432;196;30.00;35490.20
1725881768.482;104;30.00;37301.40
1725881768.532;130;30.00;36799.46
1725881768.582;129;30.00;36801.80
1725881768.632;129;30.00;36801.80
1725881768.681;246;30.00;34511.60
1725881768.731;257;30.00;34288.93
1725881768.782;180;30.00;35808.80
1725881768.832;180;30.00;35808.80
1725881768.881;180;30.00;35808.80
1725881768.933;180;30.00;35809.13
1725881768.982;96;30.00;37457.13
1725881769.032;193;30.00;35555.67
1725881769.081;193;30.00;35555.67
1725881769.132;78;30.00;37815.13
1725881769.182;218;30.00;35056.93
1725881769.233;218;30.00;35056.93
1725881769.282;218;30.00;35056.93
1725881769.333;251;30.00;34418.07
