UnixTimestamp;Microseconds;MilliAmpere;BaseValue
1726227330.319;500;1.00
1726227330.367;500;1.00
1726227330.417;500;1.00
1726227330.467;500;1.00
1726227330.518;500;1.00
1726227330.568;500;1.00
1726227330.617;500;1.00
1726227330.669;500;1.00
1726227330.719;500;1.00
1726227330.768;500;1.00
1726227330.818;500;1.00
1726227330.868;500;1.00
1726227330.918;500;1.00
1726227330.968;500;1.00
1726227335.095;1;40.00
1726227335.146;1;40.00
1726227335.195;1;40.00
1726227335.246;1;40.00
1726227335.296;1;40.00
1726227335.346;1;40.00
1726227335.396;1;40.00
1726227335.446;1;40.00
1726227335.496;1;40.00
1726227335.546;1;40.00
1726227335.596;1;40.00
1726227335.646;1;40.00
1726227335.695;1;40.00
1726227335.746;1;40.00
1726227335.795;1;40.00
1726227510.907;144;10.00;34525.60
1726227510.956;143;10.00;34508.54
1726227511.007;144;10.00;34574.13
1726227511.056;144;10.00;34574.13
1726227511.107;144;10.00;34574.13
1726227511.156;175;10.00;39180.87
1726227511.206;175;10.00;39180.87
1726227511.256;175;10.00;39180.87
1726227511.306;152;10.00;35771.60
1726227511.357;143;10.00;34451.73
1726227511.407;143;10.00;34451.73
1726227511.457;143;10.00;34451.73
1726227511.508;174;10.00;39041.60
1726227511.557;141;10.00;34139.33
1726227511.607;141;10.00;34139.33
1726227511.657;141;10.00;34139.33
1726227511.707;146;10.00;34867.87
1726227512.007;141;10.00;34157.07
1726227512.057;141;10.00;34157.07
1726227512.107;141;10.00;34157.07
1726227512.207;142;10.00;34280.67
1726227512.257;181;10.00;39950.40
1726227512.308;181;10.00;39950.40
1726227512.357;181;10.00;39950.40
1726227512.458;182;10.00;40125.33
1726227512.508;182;10.00;40125.33
1726227512.558;182;10.00;40125.33
1726227512.608;180;10.00;39873.93
1726227512.658;176;10.00;39238.60
1726227512.708;176;10.00;39227.46
1726227512.758;176;10.00;39227.46
1726227512.808;164;10.00;37580.40
1726227512.858;150;10.00;35515.00
1726227512.908;147;10.00;35036.67
1726227512.958;147;10.00;35036.67
1726227513.008;147;10.00;35036.67
1726227513.058;173;10.00;38895.13
1726227513.109;143;10.00;34378.60
1726227513.158;150;10.00;35460.40
1726227513.208;150;10.00;35460.40
1726227513.258;150;10.00;35460.40
1726227513.308;151;10.00;35637.40
1726227513.358;173;10.00;38772.60
1726227513.408;173;10.00;38772.60
1726227513.458;173;10.00;38772.60
1726227513.558;153;10.00;35956.40
1726227513.609;154;10.00;36068.40
1726227513.658;154;10.00;36068.40
1726227513.708;154;10.00;36068.40
1726227513.759;146;10.00;34885.13
1726227513.959;183;10.00;40244.33
1726227514.011;158;10.00;36634.40
1726227514.060;143;10.00;34484.54
1726227514.112;143;10.00;34484.54
1726227514.162;143;10.00;34484.54
1726227514.212;148;10.00;35255.07
1726227514.262;145;10.00;34711.07
1726227514.311;149;10.00;35400.00
1726227514.361;149;10.00;35400.00
1726227514.412;149;10.00;35400.00
1726227514.462;179;10.00;39687.33
1726227514.512;162;10.00;37193.13
1726227514.562;174;10.00;38943.46
1726227514.612;174;10.00;38943.46
1726227514.662;174;10.00;38943.46
1726227514.713;145;10.00;34785.80
1726227514.763;150;10.00;35495.07
1726227514.813;150;10.00;35495.07
1726227514.863;150;10.00;35495.07
1726227514.913;170;10.00;38375.46
1726227514.963;171;10.00;38578.13
1726227515.013;165;10.00;37619.80
1726227515.062;165;10.00;37619.80
1726227515.113;165;10.00;37619.80
1726227515.163;158;10.00;36630.87
1726227515.213;178;10.00;39626.40
1726227515.262;178;10.00;39626.40
1726227515.313;178;10.00;39626.40
1726227515.363;170;10.00;38408.33
1726227515.412;154;10.00;36097.46
1726227515.464;161;10.00;37112.93
1726227515.514;161;10.00;37112.93
1726227515.564;161;10.00;37112.93
1726227515.615;143;10.00;34456.40
1726227515.665;144;10.00;34552.46
1726227515.715;144;10.00;34552.46
1726227515.765;144;10.00;34552.46
1726227515.815;175;10.00;39148.60
1726227515.865;181;10.00;40069.87
1726227515.915;181;10.00;40069.87
1726227515.965;181;10.00;40069.87
1726227516.015;157;10.00;36554.73
1726227516.065;153;10.00;35949.87
1726227516.115;153;10.00;35949.87
1726227516.166;153;10.00;35949.87
1726227516.216;178;10.00;39529.60
1726227516.265;144;10.00;34668.27
1726227516.316;144;10.00;34668.27
1726227516.365;144;10.00;34668.27
1726227516.416;159;10.00;36825.13
1726227516.466;155;10.00;36169.20
1726227529.931;151;10.00;35589.73
1726227529.982;143;10.00;34520.13
1726227530.033;143;10.00;34520.13
1726227530.083;143;10.00;34520.13
1726227530.134;145;10.00;34680.27
1726227530.183;147;10.00;34975.33
1726227530.233;147;10.00;34975.33
1726227530.284;147;10.00;34975.33
1726227530.335;162;10.00;37196.67
1726227530.384;172;10.00;38624.27
1726227530.435;172;10.00;38624.27
1726227530.485;172;10.00;38624.27
1726227530.536;147;10.00;35003.46
1726227530.586;157;10.00;36472.67
1726227530.636;157;10.00;36472.67
1726227530.686;157;10.00;36472.67
1726227530.736;175;10.00;39172.93
1726227530.785;148;10.00;35175.46
1726227530.836;148;10.00;35236.00
1726227530.886;148;10.00;35236.00
1726227530.936;162;10.00;37208.67
1726227530.986;172;10.00;38628.73
1726227531.037;173;10.00;38810.27
1726227531.087;173;10.00;38810.27
1726227531.137;149;10.00;35306.60
1726227531.188;142;10.00;34251.33
1726227531.237;142;10.00;34251.33
1726227531.288;142;10.00;34251.33
1726227531.337;181;10.00;39947.40
1726227531.537;141;10.00;34167.07
1726227531.738;142;10.00;34334.13
1726227531.788;141;10.00;34160.27
1726227531.838;141;10.00;34160.27
1726227531.888;141;10.00;34160.27
1726227531.939;141;10.00;34160.27
1726227532.038;143;10.00;34420.27
1726227532.089;181;10.00;40076.46
1726227532.139;181;10.00;40076.46
1726227532.188;181;10.00;40076.46
1726227532.239;167;10.00;37972.60
1726227532.288;158;10.00;36575.87
1726227532.338;164;10.00;37555.46
1726227532.388;164;10.00;37555.46
1726227532.439;172;10.00;38733.13
1726227532.488;145;10.00;34741.93
1726227532.538;142;10.00;34280.87
1726227532.589;142;10.00;34280.87
1726227532.639;142;10.00;34280.87
1726227532.689;142;10.00;34280.87
1726227532.740;146;10.00;34961.20
1726227532.789;160;10.00;36987.46
1726227532.839;160;10.00;36987.46
1726227532.889;160;10.00;36987.46
1726227532.940;160;10.00;36876.13
1726227532.989;153;10.00;35867.07
1726227533.040;175;10.00;39154.13
1726227533.089;175;10.00;39154.13
1726227533.139;175;10.00;39154.13
1726227533.189;169;10.00;38198.87
1726227533.240;164;10.00;37486.20
1726227533.289;184;10.00;40482.67
1726227533.340;184;10.00;40482.67
1726227533.390;184;10.00;40482.67
1726227533.440;183;10.00;40355.87
1726227533.491;183;10.00;40261.27
1726227533.540;183;10.00;40261.27
1726227533.591;183;10.00;40261.27
1726227533.642;181;10.00;40042.73
1726227533.691;179;10.00;39742.80
1726227533.742;179;10.00;39742.80
1726227533.793;179;10.00;39742.80
1726227533.843;179;10.00;39742.80
1726227533.893;145;10.00;34747.80
1726227533.943;145;10.00;34747.80
1726227533.992;145;10.00;34747.80
1726227534.043;151;10.00;35616.13
1726227534.144;180;10.00;39903.80
1726227534.194;180;10.00;39903.80
1726227534.244;180;10.00;39903.80
1726227534.294;180;10.00;39903.80
1726227534.344;181;10.00;40067.80
1726227534.394;178;10.00;39536.40
1726227534.443;159;10.00;36800.54
1726227534.494;159;10.00;36800.54
1726227534.544;159;10.00;36800.54
1726227534.594;159;10.00;36800.54
1726227534.643;145;10.00;34726.07
1726227534.695;145;10.00;34761.87
1726227534.746;145;10.00;34761.87
1726227534.795;145;10.00;34761.87
1726227534.845;142;10.00;34260.54
1726227534.895;158;10.00;36630.73
1726227534.946;181;10.00;40023.27
1726227534.996;181;10.00;40023.27
1726227535.047;181;10.00;40023.27
1726227535.097;181;10.00;40023.27
1726227535.148;165;10.00;37625.00
1726227535.199;171;10.00;38616.27
1726227535.249;142;10.00;34318.40
1726227535.298;142;10.00;34318.40
1726227535.349;142;10.00;34318.40
1726227535.398;148;10.00;35256.54
1726227535.449;182;10.00;40183.07
1726227535.499;148;10.00;35127.00
1726227535.550;149;10.00;35366.20
1726227535.599;149;10.00;35366.20
1726227535.650;149;10.00;35366.20
1726227535.699;172;10.00;38745.20
1726227535.750;173;10.00;38852.73
1726227535.799;141;10.00;34090.80
1726227535.849;141;10.00;34090.80
1726227535.900;141;10.00;34090.80
1726227535.950;142;10.00;34275.73
1726227535.999;169;10.00;38274.73
1726227536.050;178;10.00;39638.07
1726227550.088;148;10.00;35186.67
1726227550.139;153;10.00;35964.20
1726227550.189;153;10.00;35964.20
1726227550.240;153;10.00;35964.20
1726227550.289;153;10.00;35964.20
1726227550.339;146;10.00;34904.67
1726227550.389;158;10.00;36680.46
1726227550.440;162;10.00;37194.60
1726227550.490;145;10.00;34706.80
1726227550.540;145;10.00;34706.80
1726227550.591;145;10.00;34706.80
1726227550.641;145;10.00;34706.80
1726227550.690;171;10.00;38511.27
1726227550.742;163;10.00;37352.93
1726227550.792;170;10.00;38381.46
1726227550.842;170;10.00;38381.46
1726227550.891;170;10.00;38381.46
1726227550.941;170;10.00;38381.46
1726227550.992;152;10.00;35763.67
1726227551.043;156;10.00;36301.13
1726227551.092;145;10.00;34753.07
1726227551.143;167;10.00;37908.07
1726227551.192;167;10.00;37908.07
1726227551.242;167;10.00;37908.07
1726227551.293;178;10.00;39565.87
1726227551.343;170;10.00;38405.00
1726227551.392;147;10.00;35026.40
1726227551.443;147;10.00;35026.40
1726227551.493;147;10.00;35026.40
1726227551.542;147;10.00;35026.40
1726227551.593;179;10.00;39788.33
1726227551.644;178;10.00;39540.13
1726227551.694;178;10.00;39540.13
1726227551.744;178;10.00;39540.13
1726227551.793;178;10.00;39540.13
1726227551.844;157;10.00;36485.13
1726227551.895;150;10.00;35546.07
1726227551.945;180;10.00;39919.93
1726227551.995;180;10.00;39919.93
1726227552.045;180;10.00;39919.93
1726227552.095;180;10.00;39919.93
1726227552.145;151;10.00;35575.87
1726227552.195;152;10.00;35777.00
1726227552.245;156;10.00;36413.73
1726227552.294;150;10.00;35524.27
1726227552.345;150;10.00;35524.27
1726227552.395;150;10.00;35524.27
1726227552.445;142;10.00;34267.46
1726227552.494;184;10.00;40413.93
1726227552.545;154;10.00;36103.33
1726227552.594;142;10.00;34314.00
1726227552.646;142;10.00;34314.00
1726227552.696;142;10.00;34314.00
1726227552.746;152;10.00;35698.80
1726227552.795;166;10.00;37849.73
1726227552.846;152;10.00;35792.73
1726227552.896;181;10.00;40023.93
1726227552.946;181;10.00;40023.93
1726227552.996;181;10.00;40023.93
1726227553.046;181;10.00;40023.93
1726227553.097;142;10.00;34341.33
1726227553.147;171;10.00;38561.27
1726227553.197;150;10.00;35488.67
1726227553.248;150;10.00;35488.67
1726227553.298;150;10.00;35488.67
1726227553.348;150;10.00;35488.67
1726227553.398;147;10.00;35044.87
1726227553.448;155;10.00;36200.67
1726227553.497;142;10.00;34332.13
1726227553.548;142;10.00;34332.13
1726227553.598;142;10.00;34332.13
1726227553.648;173;10.00;38896.00
1726227553.698;174;10.00;38981.67
1726227553.948;144;10.00;34546.13
1726227554.199;157;10.00;36506.80
1726227554.249;146;10.00;34858.67
1726227554.449;144;10.00;34668.00
1726227554.499;144;10.00;34629.87
1726227554.549;144;10.00;34629.87
1726227554.599;144;10.00;34629.87
1726227554.649;142;10.00;34372.93
1726227554.700;149;10.00;35310.80
1726227554.751;148;10.00;35130.00
1726227554.801;148;10.00;35130.00
1726227554.850;148;10.00;35130.00
1726227554.950;182;10.00;40220.93
1726227555.000;172;10.00;38736.00
1726227555.051;172;10.00;38736.00
1726227555.101;172;10.00;38736.00
1726227555.151;172;10.00;38736.00
1726227555.202;165;10.00;37676.87
1726227555.252;170;10.00;38435.40
1726227555.301;170;10.00;38435.40
1726227555.352;170;10.00;38435.40
1726227555.402;176;10.00;39229.93
1726227555.453;142;10.00;34377.46
1726227555.503;179;10.00;39790.54
1726227555.553;179;10.00;39790.54
1726227555.603;179;10.00;39790.54
1726227555.654;181;10.00;39976.60
1726227555.703;145;10.00;34719.80
1726227555.754;152;10.00;35801.67
1726227555.804;152;10.00;35801.67
1726227555.853;152;10.00;35801.67
1726227555.904;175;10.00;39115.20
1726227555.954;148;10.00;35127.33
1726227556.003;184;10.00;40390.54
1726227556.054;184;10.00;40390.54
1726227556.103;184;10.00;40390.54
1726227556.154;184;10.00;40390.54
1726227556.204;175;10.00;39078.20
1726227556.254;153;10.00;35869.33
1726227556.304;178;10.00;39574.93
1726227556.354;178;10.00;39574.93
1726227556.404;178;10.00;39574.93
1726227556.455;177;10.00;39481.46
1726227556.504;182;10.00;40215.54
1726227556.554;182;10.00;40215.54
1726227556.604;182;10.00;40215.54
1726227556.654;182;10.00;40215.54
1726227556.704;182;10.00;40133.00
1726227556.754;148;10.00;35122.00
1726227556.805;148;10.00;35122.00
1726227556.856;148;10.00;35122.00
1726227556.955;170;10.00;38460.46
1726227557.006;154;10.00;36099.20
1726227557.057;154;10.00;36099.20
1726227557.107;154;10.00;36099.20
1726227557.157;164;10.00;37465.00
1726227557.206;166;10.00;37879.20
1726227557.257;175;10.00;39100.46
1726227743.620;145;20.00;34751.46
1726227743.672;145;20.00;34751.46
1726227743.721;145;20.00;34751.46
1726227743.772;145;20.00;34751.46
1726227743.821;143;20.00;34401.20
1726227743.871;179;20.00;39663.00
1726227743.922;177;20.00;39402.73
1726227743.971;177;20.00;39402.73
1726227744.022;177;20.00;39402.73
1726227744.071;147;20.00;35028.07
1726227744.121;170;20.00;38453.60
1726227744.171;170;20.00;38453.60
1726227744.222;170;20.00;38453.60
1726227744.272;170;20.00;38453.60
1726227744.322;143;20.00;34398.27
1726227744.372;144;20.00;34668.80
1726227744.422;179;20.00;39696.27
1726227744.471;179;20.00;39696.27
1726227744.521;179;20.00;39696.27
1726227744.571;161;20.00;37156.40
1726227744.622;180;20.00;39819.46
1726227744.671;183;20.00;40246.00
1726227744.721;183;20.00;40246.00
1726227744.771;183;20.00;40246.00
1726227744.822;145;20.00;34750.40
1726227744.871;185;20.00;40602.20
1726227744.921;142;20.00;34298.67
1726227744.972;142;20.00;34298.67
1726227745.021;142;20.00;34298.67
1726227745.071;156;20.00;36412.40
1726227745.122;143;20.00;34500.67
1726227745.172;186;20.00;40779.40
1726227745.221;186;20.00;40779.40
1726227745.271;186;20.00;40779.40
1726227745.321;153;20.00;35910.13
1726227745.373;185;20.00;40557.13
1726227745.422;146;20.00;34926.40
1726227745.472;146;20.00;34926.40
1726227745.522;146;20.00;34926.40
1726227745.573;165;20.00;37694.46
1726227745.623;157;20.00;36510.87
1726227745.673;157;20.00;36510.87
1726227745.724;157;20.00;36510.87
1726227745.773;157;20.00;36510.87
1726227745.824;180;20.00;39935.93
1726227745.873;170;20.00;38462.00
1726227745.923;164;20.00;37526.67
1726227745.974;176;20.00;39316.46
1726227746.024;176;20.00;39316.46
1726227746.073;176;20.00;39316.46
1726227746.124;178;20.00;39602.40
1726227746.174;143;20.00;34392.87
1726227746.223;177;20.00;39421.07
1726227746.275;144;20.00;34605.33
1726227746.324;144;20.00;34605.33
1726227746.374;144;20.00;34605.33
1726227746.425;170;20.00;38472.20
1726227746.474;154;20.00;36040.54
1726227746.524;175;20.00;39182.33
1726227746.575;175;20.00;39182.33
1726227746.625;175;20.00;39182.33
1726227746.674;175;20.00;39182.33
1726227746.725;174;20.00;39060.60
1726227746.775;173;20.00;38804.46
1726227746.825;168;20.00;38078.33
1726227746.874;168;20.00;38078.33
1726227746.925;168;20.00;38078.33
1726227746.975;168;20.00;38078.33
1726227747.025;187;20.00;40938.40
1726227747.075;143;20.00;34454.40
1726227747.126;187;20.00;40933.93
1726227747.176;187;20.00;40933.93
1726227747.226;187;20.00;40933.93
1726227747.276;142;20.00;34347.33
1726227747.326;185;20.00;40656.27
1726227747.376;189;20.00;41160.13
1726227747.426;189;20.00;41160.13
1726227747.476;189;20.00;41160.13
1726227747.526;181;20.00;39947.67
1726227747.576;168;20.00;38118.87
1726227747.627;171;20.00;38562.07
1726227747.676;171;20.00;38562.07
1726227747.726;171;20.00;38562.07
1726227747.776;171;20.00;38562.07
1726227747.827;147;20.00;34970.67
1726227747.877;170;20.00;38415.46
1726227747.927;156;20.00;36384.07
1726227747.977;156;20.00;36384.07
1726227748.027;156;20.00;36384.07
1726227748.077;169;20.00;38319.46
1726227748.128;176;20.00;39210.27
1726227748.177;176;20.00;39210.27
1726227748.228;176;20.00;39210.27
1726227748.277;186;20.00;40758.46
1726227748.328;178;20.00;39623.87
1726227748.378;178;20.00;39623.87
1726227748.429;178;20.00;39623.87
1726227748.479;145;20.00;34801.27
1726227748.528;155;20.00;36192.54
1726227748.578;155;20.00;36192.54
1726227748.628;155;20.00;36192.54
1726227748.678;181;20.00;39951.00
1726227748.728;157;20.00;36523.73
1726227748.778;162;20.00;37180.20
1726227748.828;162;20.00;37180.20
1726227748.880;162;20.00;37180.20
1726227748.930;162;20.00;37180.20
1726227748.980;166;20.00;37775.13
1726227749.030;188;20.00;41015.40
1726227749.080;188;20.00;41015.40
1726227749.131;188;20.00;41015.40
1726227749.180;188;20.00;41015.40
1726227749.230;180;20.00;39804.27
1726227749.281;141;20.00;34222.93
1726227749.330;141;20.00;34222.93
1726227749.381;141;20.00;34222.93
1726227749.431;187;20.00;40942.80
1726227749.481;158;20.00;36681.00
1726227749.530;151;20.00;35584.80
1726227749.580;151;20.00;35584.80
1726227749.630;151;20.00;35584.80
1726227749.680;151;20.00;35584.80
1726227749.730;146;20.00;34918.54
1726227749.781;155;20.00;36156.67
1726227749.831;188;20.00;41003.20
1726227749.881;188;20.00;41003.20
1726227749.931;188;20.00;41003.20
1726227749.980;148;20.00;35250.67
1726227750.031;183;20.00;40323.80
1726227750.081;181;20.00;40033.54
1726227750.131;181;20.00;40033.54
1726227750.181;181;20.00;40033.54
1726227750.231;161;20.00;37110.00
1726227750.281;143;20.00;34400.80
1726227763.538;140;20.00;34084.80
1726227763.588;144;20.00;34624.54
1726227763.638;144;20.00;34624.54
1726227763.688;144;20.00;34624.54
1726227763.739;141;20.00;34169.60
1726227763.789;178;20.00;39594.87
1726227763.838;156;20.00;36349.07
1726227763.890;156;20.00;36349.07
1726227763.940;156;20.00;36349.07
1726227763.989;145;20.00;34735.20
1726227764.040;180;20.00;39911.87
1726227764.090;180;20.00;39911.87
1726227764.140;180;20.00;39911.87
1726227764.190;174;20.00;39019.07
1726227764.240;186;20.00;40809.20
1726227764.292;186;20.00;40809.20
1726227764.341;186;20.00;40809.20
1726227764.392;181;20.00;40053.20
1726227764.442;175;20.00;39176.00
1726227764.496;175;20.00;39176.00
1726227764.544;156;20.00;36400.80
1726227764.593;145;20.00;34775.33
1726227764.643;150;20.00;35476.67
1726227764.695;150;20.00;35476.67
1726227764.745;158;20.00;36689.73
1726227764.794;160;20.00;36925.07
1726227764.844;146;20.00;34897.20
1726227764.896;146;20.00;34897.20
1726227764.946;146;20.00;34897.20
1726227764.996;173;20.00;38904.27
1726227765.046;148;20.00;35168.33
1726227765.096;148;20.00;35168.33
1726227765.146;148;20.00;35168.33
1726227765.196;142;20.00;34274.00
1726227765.246;180;20.00;39870.00
1726227765.296;180;20.00;39870.00
1726227765.347;180;20.00;39870.00
1726227765.397;174;20.00;38941.54
1726227765.446;181;20.00;40000.54
1726227765.496;181;20.00;40000.54
1726227765.546;181;20.00;40000.54
1726227765.596;165;20.00;37686.54
1726227765.646;160;20.00;36882.60
1726227765.697;160;20.00;36882.60
1726227765.747;160;20.00;36882.60
1726227765.797;160;20.00;36882.60
1726227765.847;162;20.00;37291.40
1726227765.897;182;20.00;40131.33
1726227765.947;186;20.00;40708.13
1726227765.997;186;20.00;40708.13
1726227766.048;186;20.00;40708.13
1726227766.098;169;20.00;38246.13
1726227766.148;149;20.00;35270.27
1726227766.198;149;20.00;35270.27
1726227766.249;149;20.00;35270.27
1726227766.298;146;20.00;34919.60
1726227766.349;184;20.00;40451.80
1726227766.400;184;20.00;40451.80
1726227766.450;184;20.00;40451.80
1726227766.500;162;20.00;37254.87
1726227766.550;162;20.00;37254.87
1726227766.600;162;20.00;37254.87
1726227766.651;162;20.00;37254.87
1726227766.700;183;20.00;40375.07
1726227766.751;178;20.00;39524.93
1726227766.801;178;20.00;39524.93
1726227766.851;178;20.00;39524.93
1726227766.900;141;20.00;34203.20
1726227766.951;186;20.00;40757.73
1726227767.001;186;20.00;40757.73
1726227767.051;186;20.00;40757.73
1726227767.101;186;20.00;40757.73
1726227767.151;152;20.00;35819.80
1726227767.201;184;20.00;40479.67
1726227767.252;184;20.00;40479.67
1726227767.302;184;20.00;40479.67
1726227767.351;184;20.00;40479.67
1726227767.402;173;20.00;38806.33
1726227767.453;183;20.00;40337.33
1726227767.502;185;20.00;40662.60
1726227767.553;185;20.00;40662.60
1726227767.602;185;20.00;40662.60
1726227767.653;153;20.00;35887.46
1726227767.702;153;20.00;35938.73
1726227767.753;186;20.00;40737.40
1726227767.802;186;20.00;40737.40
1726227767.852;186;20.00;40737.40
1726227767.903;145;20.00;34801.46
1726227767.953;141;20.00;34156.00
1726227768.003;141;20.00;34156.00
1726227768.053;141;20.00;34156.00
1726227768.103;179;20.00;39709.54
1726227768.354;181;20.00;40005.54
1726227768.605;170;20.00;38475.00
1726227768.855;185;20.00;40557.40
1726227769.107;147;20.00;35097.20
1726227769.307;178;20.00;39609.07
1726227783.106;152;20.00;35728.40
1726227783.155;143;20.00;34469.73
1726227783.205;143;20.00;34469.73
1726227783.255;143;20.00;34469.73
1726227783.306;161;20.00;37062.87
1726227783.355;181;20.00;40024.33
1726227783.406;181;20.00;40024.33
1726227783.456;181;20.00;40024.33
1726227783.506;148;20.00;35214.27
1726227783.556;166;20.00;37888.27
1726227783.606;166;20.00;37888.27
1726227783.656;166;20.00;37888.27
1726227783.706;177;20.00;39434.33
1726227783.757;156;20.00;36363.20
1726227783.807;156;20.00;36389.33
1726227783.857;156;20.00;36389.33
1726227783.906;156;20.00;36389.33
1726227783.957;154;20.00;36006.40
1726227784.008;183;20.00;40364.00
1726227784.058;168;20.00;38090.33
1726227784.107;168;20.00;38090.33
1726227784.157;168;20.00;38090.33
1726227784.207;179;20.00;39692.27
1726227784.257;171;20.00;38582.00
1726227784.308;171;20.00;38582.00
1726227784.357;171;20.00;38582.00
1726227784.407;171;20.00;38582.00
1726227784.458;173;20.00;38804.87
1726227784.509;175;20.00;39114.33
1726227784.559;184;20.00;40510.87
1726227784.609;184;20.00;40510.87
1726227784.659;184;20.00;40510.87
1726227784.709;152;20.00;35704.67
1726227784.759;185;20.00;40657.20
1726227784.810;185;20.00;40604.67
1726227784.860;185;20.00;40604.67
1726227784.910;185;20.00;40604.67
1726227784.959;145;20.00;34700.67
1726227785.010;154;20.00;36014.13
1726227785.060;184;20.00;40453.20
1726227785.110;184;20.00;40453.20
1726227785.160;184;20.00;40453.20
1726227785.210;184;20.00;40453.20
1726227785.260;155;20.00;36209.54
1726227785.310;143;20.00;34451.60
1726227785.360;143;20.00;34451.60
1726227785.410;143;20.00;34451.60
1726227785.510;184;20.00;40430.07
1726227785.561;142;20.00;34267.60
1726227785.611;147;20.00;35018.93
1726227785.661;147;20.00;35018.93
1726227785.711;147;20.00;35018.93
1726227785.761;144;20.00;34555.60
1726227785.811;168;20.00;38111.87
1726227785.861;175;20.00;39198.46
1726227785.911;175;20.00;39198.46
1726227785.961;175;20.00;39198.46
1726227786.012;150;20.00;35433.07
1726227786.061;159;20.00;36819.07
1726227786.111;159;20.00;36819.07
1726227786.162;159;20.00;36819.07
1726227786.211;181;20.00;39945.20
1726227786.261;178;20.00;39512.73
1726227786.312;143;20.00;34517.20
1726227786.362;143;20.00;34517.20
1726227786.412;143;20.00;34517.20
1726227786.462;143;20.00;34517.20
1726227786.512;172;20.00;38743.20
1726227786.563;171;20.00;38603.87
1726227786.663;184;20.00;40424.87
1726227786.713;184;20.00;40424.87
1726227786.763;184;20.00;40424.87
1726227786.813;170;20.00;38376.13
1726227786.914;146;20.00;34889.93
1726227786.964;146;20.00;34889.93
1726227787.014;146;20.00;34889.93
1726227787.064;146;20.00;34889.93
1726227787.164;147;20.00;34978.54
1726227787.215;152;20.00;35759.07
1726227787.265;152;20.00;35759.07
1726227787.314;152;20.00;35759.07
1726227787.516;152;20.00;35715.73
1726227787.566;152;20.00;35715.73
1726227787.615;152;20.00;35715.73
1726227787.665;180;20.00;39825.07
1726227787.766;166;20.00;37862.80
1726227787.816;170;20.00;38455.20
1726227787.866;170;20.00;38455.20
1726227787.916;170;20.00;38455.20
1726227788.016;184;20.00;40395.20
1726227788.067;182;20.00;40139.46
1726227788.117;182;20.00;40139.46
1726227788.168;182;20.00;40139.46
1726227788.267;157;20.00;36440.27
1726227788.317;157;20.00;36440.27
1726227788.367;157;20.00;36440.27
1726227788.418;157;20.00;36440.27
1726227788.468;156;20.00;36311.13
1726227788.518;184;20.00;40438.46
1726227788.568;185;20.00;40576.60
1726227788.618;185;20.00;40576.60
1726227788.668;185;20.00;40576.60
1726227788.718;184;20.00;40400.67
1726227788.768;179;20.00;39783.40
1726227788.818;179;20.00;39783.40
1726227788.868;179;20.00;39783.40
1726227788.918;169;20.00;38305.93
1726227788.968;185;20.00;40529.54
1726227789.018;185;20.00;40529.54
1726227789.069;185;20.00;40529.54
1726227789.118;143;20.00;34445.33
1726227789.418;140;20.00;34084.93
1726227930.841;200;20.12;34045.33
1726227931.041;200;24.81;38964.13
1726227931.942;200;20.34;34277.46
1726227932.141;200;23.27;37346.27
1726227932.191;200;22.37;36401.40
1726227932.241;200;20.18;34106.13
1726227932.292;200;20.18;34106.13
1726227932.342;200;20.18;34106.13
1726227932.392;200;25.21;39387.80
1726227932.442;200;22.00;36013.93
1726227932.492;200;22.00;36013.93
1726227932.543;200;22.00;36013.93
1726227932.593;200;21.28;35263.46
1726227932.643;200;21.28;35263.46
1726227932.693;200;21.28;35263.46
1726227932.744;200;25.72;39914.46
1726227932.793;200;24.78;38931.60
1726227932.843;200;24.34;38465.80
1726227932.894;200;24.34;38465.80
1726227932.944;200;24.34;38465.80
1726227932.994;200;25.32;39503.00
1726227933.044;200;25.17;39342.00
1726227933.093;200;25.17;39342.00
1726227933.143;200;25.17;39342.00
1726227933.194;200;26.28;40499.80
1726227933.243;200;20.46;34404.27
1726227933.293;200;20.46;34404.27
1726227933.343;200;20.46;34404.27
1726227933.393;200;20.19;34122.93
1726227933.594;200;20.54;34483.46
1726227933.795;200;22.43;36467.87
1726227933.845;200;20.50;34442.13
1726227933.897;200;20.50;34442.13
1726227933.946;200;20.50;34442.13
1726227933.996;200;25.16;39330.46
1726227934.047;200;24.94;39104.40
1726227934.097;200;24.94;39104.40
1726227934.148;200;24.94;39104.40
1726227934.248;200;25.07;39230.93
1726227934.299;200;25.07;39230.93
1726227934.349;200;25.07;39230.93
1726227934.449;200;21.06;35035.13
1726227934.498;200;21.06;35035.13
1726227934.549;200;21.06;35035.13
1726227934.599;200;23.45;37542.40
1726227934.648;200;24.98;39144.60
1726227934.700;200;24.98;39144.60
1726227934.750;200;24.98;39144.60
1726227934.800;200;22.54;36587.67
1726227934.851;200;22.12;36144.54
1726227934.900;200;22.12;36144.54
1726227934.950;200;22.12;36144.54
1726227935.000;200;21.87;35878.13
1726227935.051;200;22.89;36949.20
1726227935.100;200;22.89;36949.20
1726227935.150;200;22.89;36949.20
1726227935.201;200;22.89;36949.20
1726227935.251;200;20.81;34767.40
1726227935.301;200;21.24;35225.27
1726227935.351;200;21.24;35225.27
1726227935.401;200;21.24;35225.27
1726227935.451;200;25.05;39210.54
1726227935.551;200;24.94;39095.80
1726227935.600;200;24.94;39095.80
1726227935.650;200;24.94;39095.80
1726227935.700;200;21.81;35819.27
1726227935.751;200;22.16;36180.80
1726227935.800;200;22.16;36180.80
1726227935.850;200;20.44;34383.33
1726227935.901;200;22.62;36666.33
1726227935.951;200;22.62;36666.33
1726227936.000;200;22.62;36666.33
1726227936.050;200;25.39;39576.60
1726227936.101;200;22.67;36720.93
1726227949.732;200;20.83;34786.00
1726227949.781;200;20.83;34786.00
1726227949.832;200;20.83;34786.00
1726227949.881;200;20.83;34786.00
1726227949.931;200;21.34;35329.40
1726227949.981;200;21.34;35329.40
1726227950.031;200;21.34;35329.40
1726227950.081;200;21.34;35329.40
1726227950.131;200;25.70;39897.40
1726227950.182;200;24.40;38536.20
1726227950.232;200;24.02;38130.73
1726227950.282;200;24.02;38130.73
1726227950.332;200;23.48;37573.07
1726227950.382;200;26.07;40286.73
1726227950.432;200;21.59;35589.13
1726227950.481;200;21.59;35589.13
1726227950.532;200;21.59;35589.13
1726227950.582;200;20.84;34802.07
1726227950.632;200;24.14;38257.33
1726227950.682;200;24.14;38257.33
1726227950.732;200;24.14;38257.33
1726227950.782;200;20.55;34497.73
1726227950.832;200;25.54;39732.93
1726227950.882;200;22.40;36442.07
1726227950.932;200;22.40;36442.07
1726227950.982;200;22.40;36442.07
1726227951.033;200;24.83;38985.33
1726227951.083;200;25.08;39246.07
1726227951.133;200;25.08;39246.07
1726227951.183;200;22.07;36088.67
1726227951.233;200;21.15;35122.93
1726227951.283;200;21.15;35122.93
1726227951.334;200;21.15;35122.93
1726227951.383;200;23.16;37231.27
1726227951.434;200;22.85;36913.07
1726227951.484;200;22.85;36913.07
1726227951.535;200;22.85;36913.07
1726227951.585;200;25.96;40164.27
1726227951.634;200;26.04;40253.73
1726227951.685;200;26.04;40253.73
1726227951.735;200;26.04;40253.73
1726227951.784;200;26.04;40253.73
1726227951.836;200;20.25;34181.60
1726227951.886;200;20.25;34181.60
1726227951.935;200;20.25;34181.60
1726227951.986;200;20.25;34181.60
1726227952.036;200;26.17;40386.73
1726227952.086;200;24.17;38293.27
1726227952.136;200;24.17;38293.27
1726227952.187;200;24.17;38293.27
1726227952.237;200;20.51;34460.93
1726227952.286;200;25.67;39864.87
1726227952.338;200;25.67;39864.87
1726227952.388;200;25.67;39864.87
1726227952.438;200;25.27;39442.20
1726227952.488;200;21.56;35559.00
1726227952.689;200;20.54;34490.54
1726227952.789;200;20.71;34662.00
1726227952.839;200;20.71;34662.00
1726227952.890;200;20.48;34420.40
1726227952.940;200;22.07;36091.46
1726227952.990;200;22.31;36346.27
1726227953.040;200;22.31;36346.27
1726227953.090;200;20.98;34944.46
1726227953.290;200;20.72;34679.60
1726227953.490;200;26.02;40231.73
1726227954.292;200;20.65;34607.73
1726227954.542;200;20.35;34283.33
1726227954.592;200;20.35;34283.33
1726227954.641;200;20.35;34283.33
1726227954.692;200;20.38;34320.67
1726227954.741;200;20.72;34672.67
1726227954.792;200;21.72;35720.93
1726227954.841;200;21.72;35720.93
1726227954.891;200;21.72;35720.93
1726227954.943;200;23.20;37274.27
1726227955.143;200;26.68;40922.07
1726227968.069;200;20.18;34109.33
1726227968.119;200;20.18;34109.33
1726227968.169;200;20.18;34109.33
1726227968.220;200;20.67;34625.20
1726227968.270;200;25.19;39361.46
1726227968.320;200;25.19;39361.46
1726227968.370;200;25.19;39361.46
1726227968.420;200;24.97;39127.40
1726227968.469;200;25.16;39330.54
1726227968.520;200;25.16;39330.54
1726227968.570;200;25.16;39330.54
1726227968.620;200;22.38;36418.20
1726227968.670;200;26.02;40235.20
1726227968.720;200;26.02;40235.20
1726227968.770;200;26.02;40235.20
1726227968.820;200;26.35;40572.67
1726227968.870;200;23.04;37112.20
1726227968.921;200;23.04;37112.20
1726227968.970;200;23.04;37112.20
1726227969.020;200;25.08;39245.13
1726227969.070;200;25.62;39813.60
1726227969.121;200;25.62;39813.60
1726227969.170;200;26.13;40349.13
1726227969.221;200;23.41;37494.73
1726227969.271;200;21.87;35877.60
1726227969.321;200;21.87;35877.60
1726227969.371;200;21.87;35877.60
1726227969.422;200;20.26;34189.73
1726227969.472;200;25.17;39336.27
1726227969.522;200;24.98;39140.27
1726227969.572;200;24.98;39140.27
1726227969.623;200;23.24;37320.46
1726227969.673;200;25.30;39473.20
1726227969.872;200;21.25;35229.67
1726227969.923;200;23.76;37857.87
1726227970.123;200;24.04;38153.54
1726227970.172;200;20.22;34147.46
1726227970.223;200;20.22;34147.46
1726227970.274;200;20.22;34147.46
1726227970.373;200;20.32;34260.00
1726227970.424;200;20.32;34260.00
1726227970.474;200;20.32;34260.00
1726227970.573;200;22.44;36475.00
1726227970.623;200;22.44;36475.00
1726227970.673;200;22.44;36475.00
1726227970.724;200;25.08;39245.46
1726227970.773;200;25.56;39745.27
1726227970.824;200;25.62;39815.87
1726227970.874;200;25.62;39815.87
1726227970.924;200;24.54;38680.67
1726227970.973;200;21.81;35820.20
1726227971.024;200;21.81;35820.20
1726227971.074;200;21.81;35820.20
1726227971.124;200;20.25;34178.00
1726227971.175;200;22.21;36236.67
1726227971.225;200;22.21;36236.67
1726227971.274;200;22.21;36236.67
1726227971.325;200;22.93;36990.27
1726227971.376;200;25.37;39547.33
1726227971.427;200;25.37;39547.33
1726227971.476;200;25.37;39547.33
1726227971.577;200;23.52;37614.40
1726227971.628;200;23.52;37614.40
1726227971.678;200;23.52;37614.40
1726227971.778;200;24.31;38436.13
1726227971.829;200;24.31;38436.13
1726227971.879;200;24.31;38436.13
1726227971.930;200;21.29;35270.07
1726227971.980;200;25.30;39471.93
1726227972.030;200;25.30;39471.93
1726227972.080;200;25.30;39471.93
1726227972.180;200;25.83;40033.60
1726227972.230;200;25.83;40033.60
1726227972.281;200;25.83;40033.60
1726227972.381;200;23.93;38039.93
1726227972.431;200;23.93;38039.93
1726227972.482;200;23.93;38039.93
1726227972.531;200;24.26;38389.67
1726227972.581;200;22.50;36539.07
1726227972.632;200;22.50;36539.07
1726227972.681;200;22.50;36539.07
1726227972.731;200;25.04;39201.60
1726227972.782;200;22.87;36925.13
1726227972.832;200;22.87;36925.13
1726227972.882;200;22.87;36925.13
1726227972.932;200;22.87;36925.13
1726227972.983;200;25.24;39414.93
1726227973.032;200;22.58;36623.60
1726227973.082;200;25.56;39746.33
1726227973.133;200;25.56;39746.33
1726227973.182;200;25.56;39746.33
1726227973.232;200;21.05;35018.87
1726228107.023;50;20.34;34282.67
1726228107.073;50;20.31;34241.87
1726228107.123;50;20.43;34372.00
1726228107.174;50;20.43;34372.00
1726228107.224;50;20.43;34372.00
1726228107.274;50;25.03;39198.60
1726228107.324;50;23.25;37324.00
1726228107.375;50;23.25;37324.00
1726228107.424;50;23.25;37324.00
1726228107.475;50;21.31;35297.33
1726228107.524;50;25.71;39903.40
1726228107.575;50;25.71;39903.40
1726228107.625;50;25.71;39903.40
1726228107.825;50;22.53;36577.27
1726228107.875;50;20.51;34454.54
1726228107.924;50;20.51;34454.54
1726228107.975;50;20.51;34454.54
1726228108.075;50;25.51;39699.07
1726228108.125;50;20.41;34355.07
1726228108.176;50;20.41;34355.07
1726228108.226;50;20.41;34355.07
1726228108.527;50;20.33;34269.73
1726228108.576;50;20.33;34269.73
1726228108.627;50;20.33;34269.73
1726228108.727;50;23.63;37727.27
1726228108.777;50;23.63;37727.27
1726228108.827;50;23.63;37727.27
1726228108.879;50;24.03;38147.07
1726228108.977;50;23.64;37738.00
1726228109.028;50;23.64;37738.00
1726228109.078;50;23.64;37738.00
1726228109.228;50;22.17;36197.20
1726228109.278;50;22.17;36197.20
1726228109.329;50;22.17;36197.20
1726228109.378;50;20.35;34292.80
1726228109.429;50;21.43;35418.00
1726228109.478;50;21.43;35418.00
1726228109.528;50;22.05;36065.33
1726228109.579;50;20.21;34140.13
1726228109.628;50;20.51;34454.13
1726228109.678;50;20.51;34454.13
1726228109.729;50;20.51;34454.13
1726228109.779;50;24.54;38682.60
1726228109.828;50;24.54;38682.60
1726228109.879;50;24.54;38682.60
1726228109.978;50;24.29;38413.54
1726228110.028;50;24.29;38413.54
1726228110.080;50;24.29;38413.54
1726228110.130;50;20.88;34848.67
1726228110.180;50;20.58;34528.00
1726228110.230;50;20.58;34528.00
1726228110.280;50;20.58;34528.00
1726228110.330;50;24.82;38975.54
1726228110.380;50;23.04;37106.80
1726228110.431;50;23.18;37251.60
1726228110.481;50;23.18;37251.60
1726228110.531;50;23.18;37251.60
1726228110.631;50;20.68;34637.20
1726228110.681;50;20.68;34637.20
1726228110.732;50;20.68;34637.20
1726228110.832;50;22.77;36824.40
1726228110.881;50;22.77;36824.40
1726228110.932;50;22.77;36824.40
1726228110.982;50;20.70;34656.00
1726228111.032;50;22.42;36460.20
1726228111.082;50;22.42;36460.20
1726228111.133;50;22.42;36460.20
1726228111.182;50;23.31;37395.07
1726228111.233;50;22.31;36340.00
1726228111.283;50;22.31;36340.00
1726228111.332;50;22.31;36340.00
1726228111.433;50;25.25;39422.33
1726228111.482;50;21.92;35936.80
1726228111.534;50;21.92;35936.80
1726228111.583;50;21.92;35936.80
1726228111.634;50;20.30;34233.87
1726228111.684;50;24.57;38714.67
1726228111.734;50;25.75;39946.73
1726228111.785;50;25.75;39946.73
1726228111.835;50;21.30;35280.00
1726228111.885;50;20.14;34066.13
1726228112.085;50;20.70;34652.93
1726228112.136;50;20.70;34652.93
1726228112.186;50;20.70;34652.93
1726228112.237;50;20.70;34652.93
1726228112.286;50;20.38;34321.46
1726228112.437;50;20.30;34230.67
1726228112.487;50;20.22;34146.80
1726228124.595;50;20.52;34470.54
1726228124.646;50;20.52;34470.54
1726228124.696;50;20.52;34470.54
1726228124.746;50;20.52;34470.54
1726228124.847;50;20.92;34882.13
1726228124.896;50;20.92;34882.13
1726228124.947;50;20.92;34882.13
1726228125.047;50;24.24;38362.87
1726228125.096;50;24.24;38362.87
1726228125.147;50;24.24;38362.87
1726228125.197;50;25.30;39475.73
1726228125.247;50;25.30;39475.73
1726228125.297;50;25.30;39475.73
1726228125.348;50;21.24;35224.87
1726228125.398;50;23.41;37498.60
1726228125.448;50;23.41;37498.60
1726228125.498;50;23.41;37498.60
1726228125.547;50;22.68;36730.40
1726228125.598;50;22.39;36429.07
1726228125.648;50;22.39;36429.07
1726228125.698;50;22.39;36429.07
1726228125.748;50;24.32;38451.07
1726228125.798;50;22.22;36246.20
1726228125.847;50;22.22;36246.20
1726228125.898;50;22.22;36246.20
1726228125.948;50;24.61;38758.60
1726228125.997;50;23.83;37939.67
1726228126.048;50;23.83;37939.67
1726228126.098;50;23.83;37939.67
1726228126.148;50;23.83;37939.67
1726228126.198;50;21.52;35518.87
1726228126.247;50;21.45;35439.54
1726228126.298;50;21.45;35439.54
1726228126.348;50;21.45;35439.54
1726228126.398;50;24.60;38743.93
1726228126.598;50;24.71;38858.80
1726228126.648;50;20.17;34101.73
1726228126.698;50;20.17;34101.73
1726228126.748;50;20.17;34101.73
1726228126.798;50;25.21;39387.00
1726228126.849;50;23.97;38084.60
1726228126.898;50;23.97;38084.60
1726228126.948;50;23.97;38084.60
1726228126.998;50;24.79;38945.80
1726228127.048;50;24.79;38945.80
1726228127.100;50;24.79;38945.80
1726228127.150;50;24.79;38945.80
1726228127.201;50;25.31;39492.40
1726228127.251;50;21.24;35226.00
1726228127.300;50;21.24;35226.00
1726228127.350;50;21.24;35226.00
1726228127.400;50;20.75;34707.73
1726228127.450;50;21.29;35278.54
1726228127.501;50;21.29;35278.54
1726228127.551;50;24.68;38830.87
1726228127.600;50;25.38;39563.40
1726228127.650;50;25.38;39563.40
1726228127.700;50;25.38;39563.40
1726228127.751;50;25.38;39563.40
1726228127.801;50;24.21;38331.40
1726228127.851;50;24.21;38331.40
1726228127.900;50;24.21;38331.40
1726228127.950;50;23.53;37621.07
1726228128.000;50;23.82;37927.00
1726228128.052;50;24.43;38565.00
1726228128.101;50;24.43;38565.00
1726228128.152;50;24.43;38565.00
1726228128.202;50;20.47;34409.60
1726228128.253;50;21.00;34973.46
1726228128.303;50;21.00;34973.46
1726228128.353;50;21.34;35323.33
1726228128.403;50;21.34;35323.33
1726228128.453;50;22.13;36158.67
1726228128.504;50;22.43;36473.54
1726228129.854;50;20.35;34284.80
1726228142.715;50;20.41;34348.67
1726228142.766;50;20.41;34348.67
1726228142.815;50;20.41;34348.67
1726228142.866;50;20.62;34575.60
1726228142.915;50;22.12;36141.87
1726228142.965;50;22.38;36413.20
1726228143.016;50;22.38;36413.20
1726228143.066;50;22.38;36413.20
1726228143.116;50;25.26;39436.27
1726228143.166;50;20.51;34452.20
1726228143.217;50;20.51;34452.20
1726228143.267;50;20.51;34452.20
1726228143.317;50;22.45;36485.07
1726228143.367;50;22.45;36485.07
1726228143.417;50;22.45;36485.07
1726228143.467;50;20.48;34419.60
1726228143.517;50;25.03;39197.93
1726228143.567;50;25.03;39197.93
1726228143.622;50;25.03;39197.93
1726228143.670;50;22.70;36746.54
1726228143.720;50;25.42;39606.54
1726228143.772;50;22.22;36251.07
1726228143.821;50;22.22;36251.07
1726228143.872;50;22.22;36251.07
1726228143.922;50;23.44;37523.73
1726228143.971;50;23.44;37523.73
1726228144.021;50;23.44;37523.73
1726228144.071;50;20.51;34458.54
1726228144.121;50;24.45;38589.13
1726228144.171;50;24.45;38589.13
1726228144.222;50;24.45;38589.13
1726228144.321;50;24.43;38564.80
1726228144.371;50;24.43;38564.80
1726228144.421;50;24.43;38564.80
1726228144.471;50;24.56;38697.67
1726228144.522;50;21.67;35669.00
1726228144.571;50;22.55;36593.60
1726228144.622;50;22.55;36593.60
1726228144.673;50;22.55;36593.60
1726228144.722;50;25.75;39948.20
1726228144.776;50;25.75;39948.20
1726228144.822;50;25.75;39948.20
1726228144.872;50;25.75;39948.20
1726228144.923;50;25.16;39326.40
1726228144.972;50;24.82;38974.33
1726228145.022;50;24.82;38974.33
1726228145.072;50;24.82;38974.33
1726228145.222;50;25.25;39425.67
1726228145.272;50;25.25;39425.67
1726228145.323;50;25.25;39425.67
1726228145.423;50;21.43;35421.46
1726228145.472;50;21.22;35202.13
1726228145.522;50;21.22;35202.13
1726228145.572;50;21.22;35202.13
1726228145.622;50;20.86;34820.20
1726228145.673;50;20.15;34074.27
1726228145.723;50;20.15;34074.27
1726228145.772;50;20.15;34074.27
1726228145.872;50;21.03;35002.73
1726228145.923;50;20.30;34237.20
1726228145.972;50;20.30;34237.20
1726228146.022;50;20.30;34237.20
1726228146.273;50;22.72;36775.87
1726228146.373;50;20.13;34053.60
1726228146.423;50;20.13;34053.60
1726228146.473;50;20.13;34053.60
1726228146.524;50;23.42;37507.46
1726228146.574;50;23.42;37507.46
1726228146.624;50;23.42;37507.46
1726228146.675;50;22.74;36798.67
1726228146.724;50;21.06;35033.20
1726228146.876;50;20.44;34383.07
1726228147.075;50;23.57;37662.40
1726228147.125;50;20.73;34686.93
1726228147.175;50;20.73;34686.93
1726228147.225;50;20.73;34686.93
1726228147.325;50;24.21;38332.46
1726228147.376;50;24.21;38332.46
1726228147.426;50;24.21;38332.46
1726228147.476;50;20.36;34295.46
1726228147.526;50;25.52;39704.93
1726228147.576;50;25.52;39704.93
1726228147.626;50;25.52;39704.93
1726228147.675;50;25.35;39527.87
1726228147.725;50;24.42;38553.33
1726228147.776;50;24.42;38553.33
1726228147.826;50;24.42;38553.33
1726228147.876;50;24.42;38553.33
1726228147.926;50;20.76;34717.07
1726228147.976;50;21.85;35855.27
1726228148.026;50;21.85;35855.27
1726228148.076;50;21.35;35337.20
1726228148.126;50;24.27;38392.13
1726228148.176;50;24.27;38392.13
1726228148.226;50;24.27;38392.13
1726228148.276;50;24.27;38392.13
1726228148.326;50;21.86;35874.00
1726228378.244;500;20.47;34413.33
1726228378.293;500;20.89;34852.80
1726228378.343;500;20.89;34852.80
1726228378.393;500;20.89;34852.80
1726228378.443;500;20.95;34912.93
1726228378.494;500;22.48;36520.67
1726228378.543;500;22.48;36520.67
1726228378.593;500;22.48;36520.67
1726228378.644;500;21.27;35250.67
1726228378.693;500;22.48;36517.00
1726228378.745;500;22.48;36517.00
1726228378.794;500;22.48;36517.00
1726228378.844;500;23.28;37358.27
1726228378.894;500;24.40;38533.67
1726228378.944;500;24.40;38533.67
1726228378.994;500;24.40;38533.67
1726228379.044;500;25.90;40102.93
1726228379.094;500;24.98;39145.33
1726228379.144;500;24.98;39145.33
1726228379.194;500;24.98;39145.33
1726228379.245;500;26.07;40288.33
1726228379.295;500;26.02;40227.80
1726228379.344;500;26.02;40227.80
1726228379.395;500;26.02;40227.80
1726228379.445;500;26.25;40475.20
1726228379.495;500;26.27;40491.07
1726228379.544;500;26.27;40491.07
1726228379.594;500;26.27;40491.07
1726228379.645;500;23.37;37452.93
1726228379.695;500;20.97;34933.73
1726228379.745;500;20.97;34933.73
1726228379.795;500;21.33;35316.27
1726228379.845;500;25.94;40148.80
1726228379.895;500;24.69;38842.40
1726228379.945;500;24.69;38842.40
1726228379.996;500;25.44;39628.73
1726228380.046;500;23.58;37673.27
1726228380.096;500;25.08;39243.40
1726228380.146;500;25.08;39243.40
1726228380.196;500;25.08;39243.40
1726228380.246;500;26.27;40489.67
1726228380.296;500;25.85;40054.00
1726228380.346;500;25.85;40054.00
1726228380.395;500;25.85;40054.00
1726228380.446;500;26.04;40253.40
1726228380.496;500;24.18;38306.87
1726228380.547;500;24.18;38306.87
1726228380.596;500;24.18;38306.87
1726228380.647;500;22.07;36089.00
1726228380.697;500;26.01;40222.87
1726228380.747;500;26.01;40222.87
1726228380.796;500;25.87;40072.00
1726228380.847;500;24.44;38576.93
1726228380.897;500;24.44;38576.93
1726228380.947;500;24.44;38576.93
1726228380.996;500;26.15;40363.27
1726228381.047;500;26.43;40664.20
1726228381.097;500;26.43;40664.20
1726228381.147;500;26.43;40664.20
1726228381.196;500;21.43;35424.07
1726228381.247;500;20.51;34457.07
1726228381.297;500;20.64;34589.73
1726228381.347;500;20.64;34589.73
1726228381.396;500;20.64;34589.73
1726228381.454;500;25.92;40128.87
1726228381.500;500;21.85;35858.80
1726228381.551;500;21.85;35858.80
1726228381.600;500;21.85;35858.80
1726228381.651;500;20.21;34144.13
1726228381.701;500;25.37;39555.46
1726228381.751;500;25.37;39555.46
1726228381.800;500;25.37;39555.46
1726228381.851;500;25.32;39500.73
1726228381.901;500;21.27;35252.46
1726228381.951;500;21.27;35252.46
1726228382.001;500;21.82;35826.73
1726228382.051;500;20.64;34595.07
1726228382.101;500;22.22;36243.73
1726228382.151;500;22.22;36243.73
1726228382.201;500;21.98;35992.00
1726228382.251;500;21.30;35281.80
1726228382.301;500;21.64;35643.07
1726228382.351;500;21.64;35643.07
1726228382.401;500;25.77;39967.46
1726228382.450;500;21.27;35249.40
1726228382.502;500;21.27;35249.40
1726228382.552;500;21.27;35249.40
1726228382.601;500;25.55;39743.07
1726228382.652;500;23.39;37472.60
1726228382.701;500;23.53;37626.00
1726228382.752;500;23.53;37626.00
1726228382.801;500;23.53;37626.00
1726228382.852;500;24.39;38528.33
1726228382.903;500;25.87;40074.87
1726228382.952;500;25.87;40074.87
1726228383.003;500;25.87;40074.87
1726228383.052;500;24.41;38542.33
1726228383.103;500;25.88;40080.60
1726228383.152;500;25.88;40080.60
1726228383.202;500;25.88;40080.60
1726228383.253;500;20.22;34153.33
1726228383.302;500;20.22;34153.33
1726228383.353;500;20.22;34153.33
1726228383.402;500;20.86;34824.20
1726228383.452;500;21.20;35183.07
1726228395.850;500;20.52;34464.67
1726228395.900;500;20.29;34228.27
1726228395.950;500;21.42;35414.73
1726228396.000;500;21.42;35414.73
1726228396.050;500;21.42;35414.73
1726228396.100;500;25.47;39653.80
1726228396.150;500;25.47;39653.80
1726228396.200;500;25.47;39653.80
1726228396.251;500;25.47;39653.80
1726228396.301;500;25.91;40117.54
1726228396.351;500;25.91;40117.54
1726228396.401;500;25.91;40117.54
1726228396.451;500;26.65;40894.07
1726228396.501;500;25.92;40122.46
1726228396.551;500;25.92;40122.46
1726228396.601;500;25.92;40122.46
1726228396.651;500;20.78;34738.73
1726228396.701;500;25.30;39477.07
1726228396.752;500;25.30;39477.07
1726228396.802;500;25.30;39477.07
1726228396.853;500;25.57;39760.27
1726228396.902;500;25.72;39918.87
1726228396.952;500;25.72;39918.87
1726228397.003;500;25.72;39918.87
1726228397.053;500;25.72;39918.87
1726228397.102;500;24.16;38281.20
1726228397.154;500;26.14;40352.46
1726228397.203;500;26.14;40352.46
1726228397.254;500;24.81;38964.67
1726228397.303;500;23.41;37494.73
1726228397.353;500;23.41;37494.73
1726228397.404;500;23.41;37494.73
1726228397.453;500;21.03;34996.40
1726228397.503;500;26.42;40654.73
1726228397.553;500;26.42;40654.73
1726228397.604;500;26.42;40654.73
1726228397.654;500;25.65;39841.93
1726228397.704;500;26.02;40236.20
1726228397.754;500;26.02;40236.20
1726228397.804;500;26.02;40236.20
1726228397.856;500;20.81;34769.33
1726228397.905;500;25.92;40122.46
1726228397.956;500;25.92;40122.46
1726228398.005;500;26.20;40420.93
1726228398.056;500;23.02;37089.13
1726228398.106;500;26.01;40226.40
1726228398.156;500;26.01;40226.40
1726228398.205;500;26.01;40226.40
1726228398.256;500;24.55;38695.20
1726228398.306;500;24.61;38758.54
1726228398.356;500;24.61;38758.54
1726228398.406;500;24.61;38758.54
1726228398.457;500;21.01;34978.67
1726228398.506;500;22.40;36434.93
1726228398.557;500;22.40;36434.93
1726228398.612;500;22.40;36434.93
1726228398.660;500;23.72;37820.93
1726228398.710;500;25.81;40012.07
1726228398.760;500;23.41;37498.54
1726228398.811;500;23.41;37498.54
1726228398.861;500;22.18;36209.67
1726228398.911;500;25.61;39798.00
1726228398.961;500;25.61;39798.00
1726228399.011;500;25.61;39798.00
1726228399.061;500;25.91;40121.46
1726228399.111;500;22.39;36425.73
1726228399.161;500;22.39;36425.73
1726228399.211;500;22.39;36425.73
1726228399.262;500;24.18;38301.73
1726228399.311;500;22.24;36265.27
1726228399.361;500;22.24;36265.27
1726228399.411;500;22.24;36265.27
1726228399.461;500;26.22;40444.93
1726228399.511;500;25.83;40033.60
1726228399.561;500;25.83;40033.60
1726228399.611;500;25.83;40033.60
1726228399.662;500;21.72;35726.27
1726228399.711;500;24.81;38960.40
1726228399.762;500;24.81;38960.40
1726228399.812;500;24.81;38960.40
1726228399.861;500;22.68;36729.27
1726228399.911;500;25.78;39982.73
1726228399.961;500;25.78;39982.73
1726228400.012;500;25.78;39982.73
1726228400.061;500;25.53;39715.00
1726228400.112;500;25.87;40070.87
1726228400.161;500;25.87;40070.87
1726228400.211;500;25.87;40070.87
1726228400.263;500;25.67;39862.40
1726228400.312;500;20.75;34710.80
1726228400.362;500;20.75;34710.80
1726228400.412;500;20.75;34710.80
1726228400.462;500;25.91;40119.73
1726228400.512;500;23.02;37092.07
1726228400.562;500;23.02;37092.07
1726228400.614;500;23.02;37092.07
1726228400.664;500;23.97;38082.13
1726228400.715;500;25.92;40122.27
1726228400.765;500;25.92;40122.27
1726228400.814;500;25.92;40122.27
1726228400.864;500;25.71;39910.93
1726228400.915;500;25.14;39309.00
1726228400.965;500;26.42;40654.87
1726228401.014;500;26.42;40654.87
1726228401.065;500;26.42;40654.87
1726228401.115;500;25.94;40144.93
1726228401.165;500;24.11;38227.13
1726228413.671;500;20.38;34323.46
1726228413.721;500;20.38;34323.46
1726228413.771;500;20.38;34323.46
1726228413.872;500;25.89;40096.13
1726228413.922;500;26.12;40335.27
1726228413.972;500;26.12;40335.27
1726228414.024;500;26.12;40335.27
1726228414.075;500;21.76;35762.93
1726228414.125;500;21.06;35037.46
1726228414.175;500;21.06;35037.46
1726228414.226;500;21.06;35037.46
1726228414.276;500;20.62;34570.46
1726228414.327;500;25.60;39796.60
1726228414.377;500;25.60;39796.60
1726228414.428;500;25.60;39796.60
1726228414.478;500;25.91;40121.27
1726228414.527;500;25.46;39643.20
1726228414.578;500;25.46;39643.20
1726228414.629;500;25.46;39643.20
1726228414.679;500;20.13;34052.40
1726228414.729;500;22.87;36931.07
1726228414.780;500;22.87;36931.07
1726228414.830;500;22.87;36931.07
1726228414.880;500;20.34;34280.60
1726228414.930;500;21.09;35061.73
1726228414.980;500;21.09;35061.73
1726228415.030;500;21.09;35061.73
1726228415.080;500;21.34;35322.67
1726228415.130;500;24.37;38497.13
1726228415.180;500;24.37;38497.13
1726228415.230;500;24.37;38497.13
1726228415.281;500;25.75;39950.67
1726228415.331;500;25.79;39992.46
1726228415.381;500;25.79;39992.46
1726228415.431;500;25.79;39992.46
1726228415.481;500;23.94;38046.27
1726228415.531;500;20.53;34474.93
1726228415.580;500;20.53;34474.93
1726228415.631;500;20.53;34474.93
1726228415.681;500;25.89;40093.27
1726228415.731;500;26.08;40292.80
1726228415.782;500;26.08;40292.80
1726228415.831;500;26.08;40292.80
1726228415.882;500;25.59;39784.80
1726228415.932;500;24.06;38180.27
1726228415.981;500;24.89;39050.73
1726228416.031;500;24.89;39050.73
1726228416.081;500;24.89;39050.73
1726228416.132;500;25.44;39625.93
1726228416.182;500;22.77;36827.07
1726228416.232;500;25.55;39734.67
1726228416.282;500;25.55;39734.67
1726228416.332;500;25.55;39734.67
1726228416.381;500;25.97;40184.67
1726228416.431;500;22.51;36553.87
1726228416.482;500;22.51;36553.87
1726228416.532;500;22.51;36553.87
1726228416.582;500;22.86;36918.13
1726228416.633;500;21.73;35735.20
1726228416.683;500;20.24;34175.20
1726228416.734;500;20.24;34175.20
1726228416.784;500;20.24;34175.20
1726228416.834;500;20.49;34430.67
1726228416.884;500;25.77;39970.67
1726228416.933;500;25.58;39769.13
1726228416.983;500;25.58;39769.13
1726228417.034;500;25.58;39769.13
1726228417.085;500;25.41;39593.20
1726228417.135;500;21.63;35628.07
1726228417.185;500;21.63;35628.07
1726228417.234;500;21.63;35628.07
1726228417.284;500;21.63;35628.07
1726228417.336;500;23.74;37839.20
1726228417.386;500;23.74;37839.20
1726228417.436;500;23.74;37839.20
1726228417.485;500;25.61;39798.80
1726228417.537;500;24.99;39154.93
1726228417.587;500;24.99;39154.93
1726228417.636;500;24.99;39154.93
1726228417.686;500;22.18;36207.60
1726228417.737;500;23.95;38065.67
1726228417.787;500;23.95;38065.67
1726228417.836;500;25.57;39757.20
1726228417.937;500;21.07;35044.93
1726228417.987;500;21.07;35044.93
1726228418.036;500;21.07;35044.93
1726228418.086;500;20.14;34068.54
1726228418.138;500;22.46;36501.33
1726228418.188;500;22.46;36501.33
1726228418.237;500;22.46;36501.33
1726228418.287;500;25.08;39243.00
1726228418.338;500;25.23;39405.40
1726228418.388;500;25.23;39405.40
1726228418.438;500;25.23;39405.40
1726228418.488;500;25.23;39405.40
1726228418.538;500;26.12;40340.00
1726228418.588;500;23.27;37353.27
1726228418.638;500;23.27;37353.27
1726228418.688;500;23.27;37353.27
1726228418.739;500;20.99;34960.40
1726228418.789;500;25.74;39933.67
1726228418.839;500;22.76;36814.80
1726228418.889;500;22.76;36814.80
1726228418.939;500;22.76;36814.80
1726228418.989;500;21.86;35865.73
1726228419.039;500;25.67;39868.40
1726228419.090;500;25.67;39868.40
1726228419.140;500;25.67;39868.40
1726228419.190;500;25.46;39646.07
1726228555.150;140;30.00;34046.67
1726228555.200;140;30.00;34046.67
1726228555.250;140;30.00;34046.67
1726228555.300;179;30.00;39719.73
1726228555.350;179;30.00;39719.73
1726228555.400;179;30.00;39719.73
1726228555.450;175;30.00;39091.60
1726228555.500;164;30.00;37549.93
1726228555.550;164;30.00;37549.93
1726228555.600;175;30.00;39164.20
1726228555.650;141;30.00;34177.13
1726228555.700;141;30.00;34177.13
1726228555.754;141;30.00;34177.13
1726228555.800;156;30.00;36371.46
1726228555.900;141;30.00;34167.87
1726228555.951;141;30.00;34167.87
1726228556.000;141;30.00;34167.87
1726228556.050;141;30.00;34137.60
1726228556.101;145;30.00;34707.46
1726228556.150;145;30.00;34707.46
1726228556.201;145;30.00;34707.46
1726228556.250;148;30.00;35170.13
1726228556.302;148;30.00;35170.13
1726228556.351;148;30.00;35166.27
1726228556.402;149;30.00;35283.46
1726228556.451;149;30.00;35283.46
1726228556.501;149;30.00;35283.73
1726228556.601;159;30.00;36764.67
1726228556.651;159;30.00;36827.54
1726228556.701;159;30.00;36827.54
1726228556.752;159;30.00;36827.54
1726228556.802;156;30.00;36363.13
1726228556.852;143;30.00;34434.80
1726228556.903;143;30.00;34434.80
1726228556.953;143;30.00;34434.80
1726228557.003;142;30.00;34268.67
1726228557.102;178;30.00;39543.27
1726228557.152;178;30.00;39543.27
1726228557.203;178;30.00;39543.27
1726228557.253;169;30.00;38190.93
1726228557.303;143;30.00;34388.67
1726228557.353;143;30.00;34388.67
1726228557.403;143;30.00;34388.67
1726228557.453;170;30.00;38370.33
1726228557.503;171;30.00;38577.20
1726228557.552;171;30.00;38577.20
1726228557.604;171;30.00;38577.20
1726228558.005;143;30.00;34433.73
1726228558.055;142;30.00;34284.67
1726228558.105;142;30.00;34284.67
1726228558.155;142;30.00;34284.67
1726228558.205;169;30.00;38189.13
1726228558.257;175;30.00;39083.67
1726228558.308;175;30.00;39083.67
1726228558.359;175;30.00;39083.67
1726228558.408;171;30.00;38500.00
1726228558.458;174;30.00;38993.27
1726228558.508;173;30.00;38880.80
1726228558.557;173;30.00;38880.80
1726228558.607;173;30.00;38880.80
1726228558.657;147;30.00;35095.73
1726228558.707;143;30.00;34466.67
1726228558.758;143;30.00;34466.67
1726228558.808;143;30.00;34466.67
1726228558.857;155;30.00;36215.46
1726228558.907;155;30.00;36207.73
1726228558.957;155;30.00;36207.73
1726228559.007;155;30.00;36207.73
1726228559.109;145;30.00;34792.20
1726228559.158;145;30.00;34792.20
1726228559.209;145;30.00;34792.20
1726228559.309;167;30.00;38001.20
1726228559.358;167;30.00;38001.20
1726228559.408;167;30.00;38001.20
1726228559.459;143;30.00;34481.73
1726228559.508;147;30.00;35026.33
1726228559.559;147;30.00;35026.33
1726228559.609;147;30.00;35026.33
1726228559.658;144;30.00;34564.40
1726228559.709;150;30.00;35433.07
1726228559.759;150;30.00;35433.07
1726228559.809;150;30.00;35433.07
1726228559.859;150;30.00;35433.07
1726228559.908;159;30.00;36826.13
1726228559.959;176;30.00;39320.87
1726228560.009;176;30.00;39320.87
1726228560.060;176;30.00;39320.87
1726228560.110;157;30.00;36489.20
1726228560.160;163;30.00;37442.80
1726228560.360;148;30.00;35190.40
1726228560.410;141;30.00;34105.60
1726228560.460;141;30.00;34105.60
1726228560.510;141;30.00;34105.60
1726228560.611;170;30.00;38453.00
1726228560.660;170;30.00;38453.00
1726228560.710;182;30.00;40175.46
1726228574.013;152;30.00;35762.33
1726228574.063;152;30.00;35762.33
1726228574.163;152;30.00;35748.80
1726228574.213;152;30.00;35748.80
1726228574.262;152;30.00;35748.80
1726228574.314;172;30.00;38723.87
1726228574.364;166;30.00;37781.60
1726228574.414;166;30.00;37781.60
1726228574.464;166;30.00;37781.60
1726228574.515;167;30.00;37968.54
1726228574.564;143;30.00;34453.80
1726228574.615;143;30.00;34453.80
1726228574.665;143;30.00;34453.80
1726228574.715;162;30.00;37165.73
1726228574.766;169;30.00;38300.46
1726228574.815;149;30.00;35338.00
1726228574.866;149;30.00;35338.00
1726228574.915;149;30.00;35338.00
1726228574.966;145;30.00;34783.87
1726228575.015;159;30.00;36864.54
1726228575.066;159;30.00;36864.54
1726228575.115;159;30.00;36864.54
1726228575.165;170;30.00;38379.73
1726228575.215;177;30.00;39462.07
1726228575.265;177;30.00;39462.07
1726228575.316;177;30.00;39462.07
1726228575.366;175;30.00;39081.54
1726228575.416;173;30.00;38895.33
1726228575.466;173;30.00;38895.33
1726228575.516;173;30.00;38895.33
1726228575.566;170;30.00;38437.20
1726228575.616;165;30.00;37663.00
1726228575.666;165;30.00;37663.00
1726228575.717;165;30.00;37663.00
1726228575.920;144;30.00;34528.27
1726228575.970;169;30.00;38309.40
1726228576.020;141;30.00;34128.54
1726228576.070;141;30.00;34128.54
1726228576.120;141;30.00;34128.54
1726228576.170;154;30.00;36113.00
1726228576.220;141;30.00;34189.80
1726228576.270;141;30.00;34124.20
1726228576.320;141;30.00;34124.20
1726228576.370;141;30.00;34124.20
1726228576.420;154;30.00;36124.20
1726228576.470;161;30.00;37029.87
1726228576.520;161;30.00;37029.87
1726228576.570;161;30.00;37029.87
1726228576.620;153;30.00;35932.46
1726228576.670;168;30.00;38125.93
1726228576.720;173;30.00;38822.00
1726228576.770;173;30.00;38822.00
1726228576.871;143;30.00;34412.67
1726228576.921;143;30.00;34412.67
1726228576.971;143;30.00;34412.67
1726228577.023;171;30.00;38520.20
1726228577.071;164;30.00;37457.67
1726228577.121;155;30.00;36219.33
1726228577.171;155;30.00;36219.33
1726228577.221;167;30.00;38036.27
1726228577.271;169;30.00;38220.73
1726228577.321;169;30.00;38220.73
1726228577.371;169;30.00;38220.73
1726228577.421;167;30.00;37924.40
1726228577.471;170;30.00;38446.60
1726228577.521;155;30.00;36152.67
1726228577.571;155;30.00;36152.67
1726228577.621;155;30.00;36152.67
1726228577.672;141;30.00;34221.20
1726228577.721;159;30.00;36786.80
1726228577.771;159;30.00;36786.80
1726228577.821;159;30.00;36786.80
1726228577.871;173;30.00;38779.33
1726228577.921;175;30.00;39186.73
1726228577.971;175;30.00;39186.73
1726228578.022;175;30.00;39186.73
1726228578.073;178;30.00;39585.40
1726228578.122;173;30.00;38907.33
1726228578.173;173;30.00;38907.33
1726228578.223;188;30.00;41010.40
1726228578.273;179;30.00;39660.73
1726228578.475;170;30.00;38413.07
1726228578.524;143;30.00;34429.60
1726228578.575;143;30.00;34429.60
1726228578.625;143;30.00;34429.60
1726228578.725;174;30.00;38985.00
1726228578.775;174;30.00;38985.00
1726228578.825;174;30.00;38985.00
1726228578.874;148;30.00;35188.67
1726228591.820;142;30.00;34262.40
1726228591.870;142;30.00;34262.40
1726228591.920;142;30.00;34262.40
1726228591.970;150;30.00;35423.80
1726228592.020;158;30.00;36599.87
1726228592.070;158;30.00;36599.87
1726228592.120;158;30.00;36599.87
1726228592.170;166;30.00;37867.07
1726228592.220;171;30.00;38501.93
1726228592.270;171;30.00;38501.93
1726228592.320;171;30.00;38501.93
1726228592.370;156;30.00;36399.13
1726228592.420;146;30.00;34832.93
1726228592.470;146;30.00;34832.93
1726228592.520;146;30.00;34832.93
1726228592.570;143;30.00;34519.20
1726228592.620;154;30.00;36024.33
1726228592.670;149;30.00;35318.13
1726228592.720;156;30.00;36324.80
1726228592.770;156;30.00;36324.80
1726228592.870;146;30.00;34919.73
1726228592.920;168;30.00;38123.46
1726228592.970;168;30.00;38123.46
1726228593.020;155;30.00;36232.13
1726228593.071;167;30.00;37920.33
1726228593.121;167;30.00;37920.33
1726228593.171;167;30.00;37920.33
1726228593.271;153;30.00;35968.54
1726228593.321;153;30.00;35968.54
1726228593.371;153;30.00;35968.54
1726228593.420;153;30.00;35916.73
1726228593.471;171;30.00;38618.13
1726228593.521;171;30.00;38618.13
1726228593.571;171;30.00;38618.13
1726228593.621;167;30.00;37972.87
1726228593.671;150;30.00;35461.73
1726228593.721;146;30.00;34948.87
1726228593.772;146;30.00;34948.87
1726228593.822;146;30.00;34948.87
1726228593.872;161;30.00;37114.20
1726228593.922;170;30.00;38430.07
1726228593.972;170;30.00;38430.07
1726228594.023;170;30.00;38430.07
1726228594.073;169;30.00;38305.07
1726228594.123;166;30.00;37870.73
1726228594.173;166;30.00;37870.73
1726228594.223;166;30.00;37870.73
1726228594.273;168;30.00;38059.54
1726228594.323;165;30.00;37683.07
1726228594.374;169;30.00;38271.00
1726228594.424;169;30.00;38271.00
1726228594.474;180;30.00;39834.87
1726228594.524;145;30.00;34814.20
1726228594.574;145;30.00;34814.20
1726228594.624;145;30.00;34814.20
1726228594.675;154;30.00;36099.60
1726228594.724;147;30.00;35075.33
1726228594.775;147;30.00;35075.33
1726228594.824;147;30.00;35075.33
1726228594.876;143;30.00;34412.67
1726228594.925;166;30.00;37770.87
1726228594.975;166;30.00;37770.87
1726228595.025;166;30.00;37770.87
1726228595.075;175;30.00;39070.40
1726228595.127;168;30.00;38148.27
1726228595.177;168;30.00;38148.27
1726228595.226;168;30.00;38148.27
1726228595.276;168;30.00;38148.27
1726228595.326;168;30.00;38148.27
1726228595.376;142;30.00;34347.07
1726228595.426;170;30.00;38334.67
1726228595.477;170;30.00;38334.67
1726228595.527;154;30.00;36030.80
1726228595.576;162;30.00;37284.20
1726228595.626;171;30.00;38503.93
1726228595.676;171;30.00;38503.93
1726228595.726;171;30.00;38503.93
1726228595.776;179;30.00;39651.20
1726228595.826;168;30.00;38143.40
1726228595.876;168;30.00;38143.40
1726228595.926;168;30.00;38143.40
1726228595.976;147;30.00;35014.40
1726228596.028;148;30.00;35179.80
1726228596.078;148;30.00;35179.80
1726228596.127;148;30.00;35179.80
1726228596.178;173;30.00;38774.40
1726228596.227;171;30.00;38576.60
1726228596.278;171;30.00;38576.60
1726228596.327;171;30.00;38576.60
1726228596.378;154;30.00;36042.67
1726228596.427;155;30.00;36176.73
1726228596.478;155;30.00;36176.73
1726228596.528;155;30.00;36176.73
1726228596.578;176;30.00;39254.46
1726228596.628;166;30.00;37850.80
1726228596.678;166;30.00;37850.80
1726228596.727;166;30.00;37850.80
1726228596.777;172;30.00;38671.07
1726228596.828;170;30.00;38466.73
1726228596.877;170;30.00;38466.73
1726228596.927;170;30.00;38466.73
1726228596.978;166;30.00;37851.54
1726228597.028;176;30.00;39282.46
1726228597.077;176;30.00;39282.46
1726228597.129;176;30.00;39282.46
1726228597.179;181;30.00;40071.27
1726228597.229;150;30.00;35511.07
1726228597.278;150;30.00;35511.07
1726228597.330;150;30.00;35511.07
1726228597.380;168;30.00;38132.60
1726228748.287;141;40.00;34118.13
1726228748.338;141;40.00;34118.13
1726228748.387;141;40.00;34118.13
1726228748.490;145;40.00;34704.27
1726228748.540;145;40.00;34704.27
1726228748.589;145;40.00;34704.27
1726228748.690;165;40.00;37705.87
1726228748.740;165;40.00;37705.87
1726228748.790;165;40.00;37705.87
1726228748.840;160;40.00;36905.40
1726228748.890;178;40.00;39519.13
1726228748.940;178;40.00;39519.13
1726228748.990;178;40.00;39519.13
1726228749.090;180;40.00;39819.00
1726228749.141;180;40.00;39819.00
1726228749.190;180;40.00;39819.00
1726228749.241;141;40.00;34144.13
1726228749.291;182;40.00;40207.67
1726228749.341;182;40.00;40207.67
1726228749.390;182;40.00;40207.67
1726228749.441;171;40.00;38509.33
1726228749.491;163;40.00;37452.46
1726228749.541;163;40.00;37452.46
1726228749.591;163;40.00;37452.46
1726228749.641;186;40.00;40709.46
1726228749.691;189;40.00;41209.33
1726228749.742;189;40.00;41209.33
1726228749.791;189;40.00;41209.33
1726228749.842;184;40.00;40409.27
1726228750.042;189;40.00;41224.20
1726228750.091;162;40.00;37245.33
1726228750.142;162;40.00;37245.33
1726228750.192;162;40.00;37245.33
1726228750.242;184;40.00;40518.73
1726228750.393;146;40.00;34931.54
1726228750.443;187;40.00;40953.46
1726228750.493;140;40.00;34062.67
1726228750.543;140;40.00;34062.67
1726228750.593;140;40.00;34062.67
1726228750.643;151;40.00;35567.40
1726228750.693;144;40.00;34614.54
1726228750.743;144;40.00;34614.54
1726228750.793;144;40.00;34614.54
1726228750.898;185;40.00;40619.60
1726228750.946;185;40.00;40592.13
1726228750.995;185;40.00;40592.13
1726228751.045;185;40.00;40592.13
1726228751.096;141;40.00;34090.00
1726228751.145;186;40.00;40767.00
1726228751.196;186;40.00;40767.00
1726228751.246;186;40.00;40767.00
1726228751.296;142;40.00;34350.54
1726228751.347;179;40.00;39705.46
1726228751.547;140;40.00;34079.07
1726228751.796;147;40.00;35000.87
1726228751.848;147;40.00;35000.87
1726228751.897;147;40.00;35000.87
1726228751.948;142;40.00;34279.73
1726228752.148;185;40.00;40612.27
1726228752.197;148;40.00;35193.87
1726228752.247;148;40.00;35193.87
1726228752.299;148;40.00;35193.87
1726228752.349;148;40.00;35193.87
1726228752.399;186;40.00;40738.33
1726228752.450;178;40.00;39553.73
1726228752.500;178;40.00;39553.73
1726228752.550;181;40.00;40000.07
1726228752.600;180;40.00;39810.46
1726228752.651;180;40.00;39810.46
1726228752.701;180;40.00;39810.46
1726228752.750;187;40.00;40913.60
1726228753.002;148;40.00;35226.80
1726228753.052;148;40.00;35226.80
1726228753.102;148;40.00;35226.80
1726228753.152;143;40.00;34448.27
1726228765.997;142;40.00;34282.67
1726228766.047;141;40.00;34202.40
1726228766.098;141;40.00;34202.40
1726228766.149;146;40.00;34826.93
1726228766.199;185;40.00;40536.20
1726228766.249;185;40.00;40536.20
1726228766.298;185;40.00;40536.20
1726228766.349;143;40.00;34480.93
1726228766.400;153;40.00;35947.80
1726228766.450;153;40.00;35947.80
1726228766.500;153;40.00;35947.80
1726228766.550;146;40.00;34945.87
1726228766.600;168;40.00;38085.27
1726228766.650;168;40.00;38085.27
1726228766.700;168;40.00;38085.27
1726228766.750;171;40.00;38528.00
1726228766.800;164;40.00;37581.07
1726228766.850;164;40.00;37581.07
1726228766.900;164;40.00;37581.07
1726228766.950;170;40.00;38350.73
1726228767.001;185;40.00;40560.87
1726228767.050;185;40.00;40560.87
1726228767.100;185;40.00;40560.87
1726228767.150;187;40.00;40935.40
1726228767.200;188;40.00;40992.80
1726228767.250;189;40.00;41169.27
1726228767.300;189;40.00;41169.27
1726228767.351;188;40.00;41101.33
1726228767.400;187;40.00;40963.33
1726228767.451;187;40.00;40963.33
1726228767.501;187;40.00;40963.33
1726228767.602;145;40.00;34738.67
1726228767.651;145;40.00;34738.67
1726228767.702;145;40.00;34738.67
1726228767.752;143;40.00;34521.46
1726228767.802;183;40.00;40337.46
1726228767.852;181;40.00;40063.40
1726228767.902;181;40.00;40063.40
1726228767.952;181;40.00;40063.40
1726228768.053;165;40.00;37605.54
1726228768.102;165;40.00;37605.54
1726228768.152;164;40.00;37579.73
1726228768.353;144;40.00;34613.87
1726228768.403;144;40.00;34583.87
1726228768.453;144;40.00;34583.87
1726228768.503;144;40.00;34583.87
1726228768.553;174;40.00;39012.07
1726228768.603;174;40.00;38993.73
1726228768.653;174;40.00;38993.73
1726228768.703;174;40.00;38993.73
1726228768.753;187;40.00;40890.07
1726228768.803;165;40.00;37696.27
1726228768.854;165;40.00;37696.27
1726228768.904;165;40.00;37696.27
1726228769.004;186;40.00;40782.80
1726228769.054;186;40.00;40782.80
1726228769.104;186;40.00;40782.80
1726228769.154;187;40.00;40954.80
1726228769.204;142;40.00;34330.40
1726228769.255;142;40.00;34330.40
1726228769.305;142;40.00;34330.40
1726228769.355;143;40.00;34487.67
1726228769.404;179;40.00;39774.87
1726228769.456;182;40.00;40093.67
1726228769.505;182;40.00;40093.67
1726228769.555;182;40.00;40093.67
1726228769.663;185;40.00;40636.07
1726228769.710;183;40.00;40262.33
1726228769.761;183;40.00;40262.33
1726228769.810;183;40.00;40262.33
1726228769.910;142;40.00;34297.93
1726228769.961;142;40.00;34297.93
1726228770.011;142;40.00;34297.93
1726228770.061;183;40.00;40295.93
1726228770.111;181;40.00;40051.13
1726228770.161;181;40.00;40051.13
1726228770.211;181;40.00;40051.13
1726228770.261;184;40.00;40489.60
1726228770.311;186;40.00;40798.80
1726228770.362;186;40.00;40798.80
1726228770.412;186;40.00;40798.80
1726228770.463;186;40.00;40798.80
1726228770.512;162;40.00;37227.40
1726228770.562;162;40.00;37227.40
1726228770.612;162;40.00;37227.40
1726228770.664;165;40.00;37624.54
1726228770.713;187;40.00;40954.87
1726228770.763;187;40.00;40954.87
1726228770.813;187;40.00;40954.87
1726228770.914;165;40.00;37642.54
1726228770.964;165;40.00;37642.54
1726228771.014;165;40.00;37642.54
1726228771.063;168;40.00;38153.00
1726228771.113;187;40.00;40827.33
1726228783.753;144;40.00;34532.13
1726228783.804;145;40.00;34703.33
1726228783.854;145;40.00;34703.33
1726228783.904;145;40.00;34703.33
1726228784.004;159;40.00;36841.93
1726228784.055;166;40.00;37870.46
1726228784.108;166;40.00;37870.46
1726228784.156;165;40.00;37644.60
1726228784.206;164;40.00;37579.87
1726228784.256;154;40.00;36003.33
1726228784.306;154;40.00;36003.33
1726228784.356;154;40.00;36003.33
1726228784.407;175;40.00;39099.40
1726228784.457;160;40.00;36896.27
1726228784.506;160;40.00;36896.27
1726228784.556;160;40.00;36896.27
1726228784.606;163;40.00;37446.54
1726228784.657;156;40.00;36343.54
1726228784.707;156;40.00;36343.54
1726228784.757;156;40.00;36343.54
1726228784.807;142;40.00;34355.40
1726228784.857;159;40.00;36777.60
1726228784.907;159;40.00;36777.60
1726228784.958;147;40.00;35075.67
1726228785.008;172;40.00;38688.93
1726228785.059;172;40.00;38710.93
1726228785.109;172;40.00;38710.93
1726228785.159;184;40.00;40442.46
1726228785.360;161;40.00;37098.27
1726228785.410;147;40.00;34973.80
1726228785.460;147;40.00;34973.80
1726228785.510;147;40.00;34973.80
1726228785.560;156;40.00;36359.07
1726228785.610;148;40.00;35153.60
1726228785.661;148;40.00;35153.60
1726228785.710;148;40.00;35153.60
1726228785.810;167;40.00;37985.93
1726228785.860;167;40.00;37985.93
1726228785.910;167;40.00;37985.93
1726228785.961;177;40.00;39500.54
1726228786.060;179;40.00;39723.54
1726228786.110;179;40.00;39723.54
1726228786.160;179;40.00;39723.54
1726228786.260;157;40.00;36533.20
1726228786.310;157;40.00;36533.20
1726228786.360;157;40.00;36533.20
1726228786.410;144;40.00;34659.60
1726228786.460;149;40.00;35386.13
1726228786.510;149;40.00;35386.13
1726228786.560;174;40.00;38929.13
1726228786.611;175;40.00;39169.87
1726228786.810;186;40.00;40750.27
1726228786.861;143;40.00;34425.87
1726228786.911;143;40.00;34425.87
1726228786.961;143;40.00;34425.87
1726228787.011;177;40.00;39492.27
1726228787.061;159;40.00;36813.67
1726228787.112;159;40.00;36813.67
1726228787.162;159;40.00;36813.67
1726228787.211;186;40.00;40719.67
1726228787.261;162;40.00;37268.73
1726228787.312;162;40.00;37268.73
1726228787.362;162;40.00;37268.73
1726228787.562;157;40.00;36470.60
1726228787.763;142;40.00;34259.07
1726228787.812;146;40.00;34841.07
1726228787.862;146;40.00;34841.07
1726228787.913;146;40.00;34841.07
1726228787.963;160;40.00;36998.27
1726228788.013;173;40.00;38863.00
1726228788.063;176;40.00;39301.40
1726228788.112;176;40.00;39301.40
1726228788.162;176;40.00;39301.40
1726228788.263;149;40.00;35400.93
1726228788.313;149;40.00;35400.93
1726228788.363;149;40.00;35400.93
1726228788.464;184;40.00;40443.87
1726228788.513;184;40.00;40443.87
1726228788.563;184;40.00;40443.87
1726228788.665;188;40.00;40986.73
1726228788.715;188;40.00;40986.73
1726228788.764;188;40.00;40986.73
1726228788.814;150;40.00;35496.60
1726228788.864;182;40.00;40174.60
1726228788.915;182;40.00;40174.60
1726228788.965;182;40.00;40174.60
1726228789.016;186;40.00;40704.20
1726228962.876;350;20.63;34586.40
1726228962.926;350;20.29;34225.46
1726228962.976;350;20.29;34225.46
1726228963.025;350;20.29;34225.46
1726228963.075;350;20.65;34604.00
1726228963.125;350;21.43;35422.54
1726228963.176;350;21.43;35422.54
1726228963.225;350;21.43;35422.54
1726228963.275;350;21.07;35041.46
1726228963.327;350;24.60;38740.13
1726228963.377;350;24.60;38740.13
1726228963.426;350;24.60;38740.13
1726228963.477;350;25.54;39723.87
1726228963.527;350;21.02;34986.87
1726228963.577;350;21.02;34986.87
1726228963.626;350;21.02;34986.87
1726228963.677;350;24.30;38429.40
1726228963.727;350;24.38;38515.27
1726228963.776;350;24.38;38515.27
1726228963.826;350;24.38;38515.27
1726228963.877;350;24.74;38885.27
1726228963.926;350;26.05;40263.33
1726228963.977;350;26.05;40263.33
1726228964.027;350;26.05;40263.33
1726228964.077;350;20.62;34569.87
1726228964.127;350;26.16;40380.20
1726228964.177;350;26.16;40380.20
1726228964.227;350;26.16;40380.20
1726228964.277;350;25.63;39823.54
1726228964.327;350;21.52;35511.80
1726228964.377;350;21.52;35511.80
1726228964.426;350;21.52;35511.80
1726228964.476;350;24.58;38720.13
1726228964.527;350;25.47;39650.67
1726228964.577;350;25.47;39650.67
1726228964.627;350;25.47;39650.67
1726228964.678;350;21.42;35406.46
1726228964.728;350;25.99;40199.87
1726228964.778;350;25.99;40199.87
1726228964.828;350;25.99;40199.87
1726228964.878;350;21.26;35243.33
1726228964.930;350;20.73;34689.87
1726228964.980;350;20.73;34689.87
1726228965.029;350;20.73;34689.87
1726228965.080;350;25.41;39588.67
1726228965.130;350;21.60;35594.80
1726228965.179;350;21.60;35594.80
1726228965.231;350;21.60;35594.80
1726228965.280;350;25.20;39372.33
1726228965.330;350;22.62;36669.07
1726228965.381;350;22.62;36669.07
1726228965.431;350;22.62;36669.07
1726228965.480;350;20.32;34260.40
1726228965.531;350;25.66;39855.73
1726228965.581;350;25.66;39855.73
1726228965.631;350;25.66;39855.73
1726228965.682;350;24.15;38272.54
1726228965.732;350;21.79;35801.87
1726228965.781;350;21.79;35801.87
1726228965.832;350;23.52;37610.80
1726228965.882;350;26.09;40304.13
1726228965.931;350;26.09;40304.13
1726228965.983;350;26.09;40304.13
1726228966.032;350;26.16;40377.07
1726228966.083;350;25.43;39609.73
1726228966.132;350;25.43;39609.73
1726228966.182;350;25.43;39609.73
1726228966.234;350;21.22;35195.54
1726228966.284;350;24.07;38184.20
1726228966.334;350;26.17;40386.80
1726228966.385;350;26.17;40386.80
1726228966.434;350;26.17;40386.80
1726228966.485;350;24.84;38992.40
1726228966.535;350;22.55;36596.40
1726228966.585;350;22.55;36596.40
1726228966.635;350;22.55;36596.40
1726228966.685;350;21.07;35047.07
1726228966.736;350;26.18;40395.67
1726228966.785;350;26.18;40395.67
1726228966.835;350;26.18;40395.67
1726228966.886;350;25.89;40100.67
1726228966.936;350;26.03;40239.07
1726228966.985;350;26.03;40239.07
1726228967.035;350;26.03;40239.07
1726228967.085;350;24.47;38610.20
1726228967.136;350;23.55;37642.13
1726228967.186;350;23.55;37642.13
1726228967.235;350;23.55;37642.13
1726228967.285;350;26.00;40206.67
1726228980.131;350;21.17;35146.93
1726228980.181;350;21.17;35146.93
1726228980.231;350;21.17;35146.93
1726228980.281;350;21.17;35146.93
1726228980.330;350;25.66;39853.60
1726228980.381;350;23.34;37419.67
1726228980.431;350;23.34;37419.67
1726228980.482;350;26.00;40209.46
1726228980.531;350;22.96;37024.33
1726228980.582;350;22.96;37024.33
1726228980.632;350;22.96;37024.33
1726228980.682;350;24.78;38929.87
1726228980.732;350;22.57;36612.20
1726228980.782;350;22.57;36612.20
1726228980.832;350;22.57;36612.20
1726228980.882;350;21.28;35261.46
1726228980.933;350;22.08;36103.67
1726228980.984;350;22.08;36103.67
1726228981.033;350;22.08;36103.67
1726228981.084;350;23.29;37369.00
1726228981.133;350;25.77;39972.46
1726228981.184;350;25.77;39972.46
1726228981.233;350;25.77;39972.46
1726228981.284;350;25.98;40188.20
1726228981.335;350;20.63;34580.27
1726228981.385;350;20.63;34580.27
1726228981.434;350;20.63;34580.27
1726228981.484;350;25.77;39972.87
1726228981.535;350;26.22;40441.40
1726228981.585;350;26.22;40441.40
1726228981.636;350;26.22;40441.40
1726228981.685;350;22.71;36763.20
1726228981.736;350;23.50;37593.40
1726228981.786;350;23.50;37593.40
1726228981.836;350;23.50;37593.40
1726228981.887;350;24.56;38698.80
1726228981.937;350;25.82;40020.60
1726228981.987;350;25.82;40020.60
1726228982.036;350;25.82;40020.60
1726228982.087;350;26.14;40359.46
1726228982.136;350;26.09;40302.20
1726228982.187;350;26.09;40302.20
1726228982.236;350;26.09;40302.20
1726228982.286;350;26.23;40448.13
1726228982.338;350;22.57;36610.73
1726228982.387;350;22.57;36610.73
1726228982.438;350;22.57;36610.73
1726228982.488;350;26.09;40310.27
1726228982.539;350;26.35;40581.80
1726228982.589;350;26.35;40581.80
1726228982.639;350;26.35;40581.80
1726228982.690;350;22.80;36854.40
1726228982.740;350;25.14;39309.87
1726228982.790;350;25.14;39309.87
1726228982.840;350;25.14;39309.87
1726228982.890;350;21.76;35761.80
1726228982.941;350;22.63;36675.13
1726228982.990;350;22.63;36675.13
1726228983.041;350;22.63;36675.13
1726228983.090;350;26.01;40218.33
1726228983.141;350;25.03;39189.07
1726228983.191;350;24.54;38684.20
1726228983.241;350;24.54;38684.20
1726228983.291;350;24.19;38309.87
1726228983.342;350;20.43;34370.00
1726228983.391;350;21.53;35520.93
1726228983.442;350;21.53;35520.93
1726228983.493;350;24.30;38432.87
1726228983.542;350;26.31;40539.87
1726228983.593;350;26.31;40539.87
1726228983.643;350;26.31;40539.87
1726228983.693;350;23.55;37641.87
1726228983.743;350;23.17;37242.40
1726228983.793;350;23.17;37242.40
1726228983.843;350;23.17;37242.40
1726228983.894;350;26.33;40553.20
1726228983.944;350;25.98;40185.13
1726228983.994;350;25.98;40185.13
1726228984.045;350;25.46;39647.87
1726228984.094;350;20.73;34682.80
1726228984.145;350;20.73;34682.80
1726228984.194;350;20.73;34682.80
1726228984.244;350;26.00;40211.54
1726228984.295;350;23.06;37134.13
1726228984.344;350;23.06;37134.13
1726228984.395;350;23.06;37134.13
1726228984.445;350;24.64;38781.87
1726228984.495;350;25.84;40048.00
1726228984.545;350;25.84;40048.00
1726228984.595;350;25.84;40048.00
1726228984.644;350;22.60;36649.54
1726228984.695;350;22.83;36886.00
1726228984.744;350;26.03;40240.33
1726228984.795;350;26.03;40240.33
1726228984.845;350;26.03;40240.33
1726228984.895;350;26.41;40636.46
1726228984.945;350;25.32;39493.07
1726228984.994;350;25.33;39505.33
1726228985.045;350;25.33;39505.33
1726228985.096;350;25.33;39505.33
1726228985.145;350;26.19;40412.33
1726228998.041;350;20.22;34147.00
1726228998.091;350;20.22;34147.00
1726228998.140;350;20.22;34147.00
1726228998.191;350;20.12;34044.67
1726228998.241;350;20.99;34961.73
1726228998.290;350;20.99;34961.73
1726228998.341;350;20.99;34961.73
1726228998.391;350;20.99;34961.73
1726228998.441;350;25.95;40157.87
1726228998.492;350;24.94;39104.00
1726228998.542;350;24.94;39104.00
1726228998.592;350;24.94;39104.00
1726228998.642;350;24.85;39005.27
1726228998.692;350;26.06;40278.80
1726228998.742;350;26.06;40278.80
1726228998.792;350;26.06;40278.80
1726228998.841;350;22.47;36509.46
1726228998.892;350;25.60;39793.73
1726228998.942;350;25.60;39793.73
1726228998.992;350;25.60;39793.73
1726228999.042;350;25.60;39793.73
1726228999.092;350;23.31;37393.93
1726228999.142;350;21.87;35881.00
1726228999.193;350;23.60;37697.27
1726228999.242;350;23.60;37697.27
1726228999.293;350;23.60;37697.27
1726228999.343;350;20.67;34621.00
1726228999.392;350;24.48;38617.73
1726228999.443;350;24.03;38142.20
1726228999.493;350;24.03;38142.20
1726228999.544;350;24.03;38142.20
1726228999.594;350;22.98;37040.73
1726228999.644;350;24.84;38995.54
1726228999.695;350;21.37;35353.87
1726228999.745;350;21.37;35353.87
1726228999.795;350;21.37;35353.87
1726228999.845;350;26.27;40496.07
1726228999.895;350;20.78;34740.40
1726228999.945;350;20.78;34740.40
1726228999.995;350;20.78;34740.40
1726229000.046;350;20.78;34740.40
1726229000.096;350;21.39;35379.80
1726229000.146;350;25.82;40025.20
1726229000.196;350;21.74;35742.87
1726229000.246;350;21.74;35742.87
1726229000.296;350;21.74;35742.87
1726229000.346;350;26.30;40522.60
1726229000.396;350;24.60;38746.54
1726229000.446;350;26.21;40431.80
1726229000.496;350;26.21;40431.80
1726229000.546;350;26.21;40431.80
1726229000.596;350;21.72;35723.27
1726229000.645;350;25.63;39818.80
1726229000.697;350;25.63;39818.80
1726229000.747;350;25.63;39818.80
1726229000.798;350;25.63;39818.80
1726229000.848;350;22.59;36636.60
1726229000.898;350;20.45;34394.80
1726229000.948;350;20.45;34394.80
1726229000.998;350;20.45;34394.80
1726229001.048;350;20.45;34394.80
1726229001.098;350;26.04;40258.00
1726229001.150;350;20.83;34793.60
1726229001.200;350;24.96;39117.60
1726229001.250;350;25.51;39695.93
1726229001.300;350;25.51;39695.93
1726229001.350;350;25.51;39695.93
1726229001.401;350;24.45;38586.20
1726229001.451;350;20.61;34561.60
1726229001.501;350;24.31;38442.33
1726229001.551;350;22.61;36653.33
1726229001.601;350;22.61;36653.33
1726229001.651;350;22.61;36653.33
1726229001.701;350;22.61;36653.33
1726229001.750;350;23.25;37325.33
1726229001.801;350;26.18;40398.07
1726229001.851;350;21.02;34985.60
1726229001.901;350;21.02;34985.60
1726229001.951;350;21.02;34985.60
1726229002.001;350;25.08;39243.33
1726229002.051;350;25.75;39946.07
1726229002.101;350;25.46;39643.87
1726229002.151;350;25.46;39643.87
1726229002.201;350;25.46;39643.87
1726229002.251;350;25.46;39643.87
1726229002.303;350;25.90;40107.54
1726229002.351;350;25.95;40158.73
1726229002.402;350;22.10;36126.27
1726229002.452;350;24.73;38883.27
1726229002.501;350;24.73;38883.27
1726229002.552;350;24.73;38883.27
1726229002.603;350;24.68;38822.33
1726229002.653;350;21.52;35514.33
1726229002.703;350;23.06;37124.80
1726229002.753;350;24.02;38135.87
1726229002.803;350;24.02;38135.87
1726229002.853;350;24.02;38135.87
1726229002.903;350;26.05;40267.20
1726229002.952;350;26.17;40392.87
1726229003.003;350;24.26;38384.93
1726229003.053;350;24.26;38384.93
1726229003.103;350;24.26;38384.93
1726229003.154;350;22.92;36980.46
1726229003.204;350;21.07;35041.60
1726229003.254;350;21.07;35041.60
1726229003.304;350;21.07;35041.60
1726229003.354;350;25.79;39995.46
1726229003.405;350;25.57;39763.67
1726229003.454;350;25.81;40014.73
1726229003.505;350;25.81;40014.73
1726229003.555;350;25.81;40014.73
1726229003.605;350;25.08;39251.54
1726229003.655;350;22.50;36538.07
1726229003.705;350;24.80;38950.93
1726229003.755;350;25.42;39607.80
1726229003.805;350;25.42;39607.80
1726229003.855;350;25.42;39607.80
1726229003.905;350;22.73;36781.54
1726229003.956;350;23.84;37947.87
1726229004.006;350;26.13;40349.73
1726229004.055;350;26.13;40349.73
1726229004.107;350;26.13;40349.73
1726229004.156;350;21.66;35656.33
1726229004.207;350;25.64;39837.80
1726229004.257;350;21.96;35980.33
1726229004.306;350;21.96;35980.33
1726229004.357;350;21.96;35980.33
1726229004.407;350;22.12;36147.67
1726229004.457;350;20.96;34923.40
1726229004.506;350;22.50;36539.67
1726229004.556;350;20.88;34846.27
1726229004.608;350;20.88;34846.27
1726229004.658;350;20.88;34846.27
1726229004.708;350;25.97;40178.67
1726229004.758;350;25.77;39965.87
1726229004.808;350;25.79;39985.93
