UnixTimestamp;Microseconds;MilliAmpere;BaseValue
1725902123.437;500;1.00
1725902123.484;500;1.00
1725902123.536;500;1.00
1725902123.586;500;1.00
1725902123.636;500;1.00
1725902123.685;500;1.00
1725902123.737;500;1.00
1725902123.788;500;1.00
1725902123.838;500;1.00
1725902123.889;500;1.00
1725902123.939;500;1.00
1725902123.989;500;1.00
1725902124.039;500;1.00
1725902124.090;500;1.00
1725902124.139;500;1.00
1725902124.189;500;1.00
1725902124.239;500;1.00
1725902124.289;500;1.00
1725902124.339;500;1.00
1725902124.389;500;1.00
1725902124.440;500;1.00
1725902129.030;1;40.00
1725902129.079;1;40.00
1725902129.129;1;40.00
1725902129.179;1;40.00
1725902129.230;1;40.00
1725902129.279;1;40.00
1725902129.329;1;40.00
1725902129.380;1;40.00
1725902129.430;1;40.00
1725902129.480;1;40.00
1725902129.529;1;40.00
1725902129.580;1;40.00
1725902129.630;1;40.00
1725902129.681;1;40.00
1725902129.731;1;40.00
1725902129.780;1;40.00
1725902129.831;1;40.00
1725902129.881;1;40.00
1725902129.931;1;40.00
1725902129.980;1;40.00
1725902130.030;1;40.00
1725902130.080;1;40.00
1725902130.130;1;40.00
1725902130.181;1;40.00
1725902130.231;1;40.00
1725902130.280;1;40.00
1725902130.331;1;40.00
1725902130.382;1;40.00
1725902130.431;1;40.00
1725902130.482;1;40.00
1725902130.532;1;40.00
1725902130.582;1;40.00
1725902130.632;1;40.00
1725902130.683;1;40.00
1725902130.732;1;40.00
1725902164.453;79;20.00;36568.93
1725902164.502;79;20.00;36568.93
1725902164.552;79;20.00;36568.93
1725902164.602;62;20.00;39160.60
1725902164.652;62;20.00;39160.60
1725902164.702;62;20.00;39160.60
1725902164.752;39;20.00;42584.67
1725902164.803;77;20.00;36732.27
1725902164.853;77;20.00;36732.27
1725902164.903;41;20.00;42338.20
1725902164.954;37;20.00;42900.87
1725902165.003;37;20.00;42900.87
1725902165.053;37;20.00;42900.87
1725902165.105;56;20.00;40077.20
1725902165.154;71;20.00;37676.87
1725902165.204;71;20.00;37676.87
1725902165.255;71;20.00;37676.87
1725902165.305;82;20.00;36047.93
1725902165.355;82;20.00;36047.93
1725902165.405;82;20.00;36047.93
1725902165.455;75;20.00;37139.40
1725902165.506;43;20.00;41926.80
1725902165.556;43;20.00;41926.80
1725902165.606;43;20.00;41926.80
1725902165.656;79;20.00;36473.73
1725902165.707;46;20.00;41500.93
1725902165.757;46;20.00;41500.93
1725902165.807;46;20.00;41500.93
1725902165.858;78;20.00;36665.40
1725902165.908;66;20.00;38505.80
1725902165.957;66;20.00;38505.80
1725902166.008;66;20.00;38505.80
1725902166.058;69;20.00;37984.87
1725902166.108;84;20.00;35793.73
1725902166.157;84;20.00;35793.73
1725902166.208;61;20.00;39179.80
1725902166.258;51;20.00;40787.60
1725902166.308;51;20.00;40701.87
1725902166.357;51;20.00;40701.87
1725902166.407;54;20.00;40244.87
1725902166.462;62;20.00;39145.13
1725902166.509;62;20.00;39145.13
1725902166.559;62;20.00;39145.13
1725902166.609;86;20.00;35464.27
1725902166.660;62;20.00;39085.60
1725902166.709;62;20.00;39085.60
1725902166.760;62;20.00;39085.60
1725902166.809;67;20.00;38293.60
1725902166.859;67;20.00;38293.60
1725902166.909;67;20.00;38293.60
1725902166.959;48;20.00;41270.93
1725902167.009;58;20.00;39753.07
1725902167.059;58;20.00;39753.07
1725902167.109;86;20.00;35475.07
1725902167.160;64;20.00;38799.13
1725902167.210;64;20.00;38799.13
1725902167.260;64;20.00;38799.13
1725902167.310;75;20.00;37045.67
1725902167.360;75;20.00;37045.67
1725902167.410;75;20.00;37045.67
1725902167.460;43;20.00;42045.33
1725902167.510;40;20.00;42474.87
1725902167.560;40;20.00;42474.87
1725902167.610;40;20.00;42474.87
1725902167.660;67;20.00;38321.46
1725902167.711;52;20.00;40673.07
1725902167.761;52;20.00;40673.07
1725902167.810;52;20.00;40673.07
1725902167.862;71;20.00;37750.40
1725902167.911;90;20.00;34828.54
1725902167.961;90;20.00;34828.54
1725902168.011;83;20.00;35870.93
1725902168.061;73;20.00;37371.46
1725902168.112;83;20.00;35906.40
1725902168.162;83;20.00;35906.40
1725902168.212;71;20.00;37755.60
1725902168.262;62;20.00;39036.60
1725902168.313;62;20.00;39036.60
1725902168.363;62;20.00;39036.60
1725902168.414;64;20.00;38809.20
1725902168.464;52;20.00;40558.67
1725902168.516;52;20.00;40558.67
1725902168.566;52;20.00;40558.67
1725902168.617;50;20.00;40992.54
1725902168.667;44;20.00;41854.67
1725902168.717;44;20.00;41854.67
1725902168.767;44;20.00;41854.67
1725902168.817;72;20.00;37544.07
1725902168.867;72;20.00;37544.07
1725902168.918;72;20.00;37544.07
1725902168.968;81;20.00;36215.73
1725902169.019;64;20.00;38830.80
1725902169.069;64;20.00;38830.80
1725902169.119;43;20.00;41910.80
1725902180.316;87;20.00;35227.67
1725902180.367;87;20.00;35227.67
1725902180.418;87;20.00;35227.67
1725902180.468;79;20.00;36437.20
1725902180.517;78;20.00;36644.13
1725902180.569;78;20.00;36644.13
1725902180.619;71;20.00;37699.80
1725902180.669;81;20.00;36202.20
1725902180.719;81;20.00;36202.20
1725902180.769;81;20.00;36202.20
1725902180.819;64;20.00;38734.46
1725902180.869;64;20.00;38756.87
1725902180.919;64;20.00;38756.87
1725902180.969;42;20.00;42137.67
1725902181.019;55;20.00;40181.87
1725902181.069;55;20.00;40181.87
1725902181.119;62;20.00;39149.40
1725902181.169;67;20.00;38281.20
1725902181.219;67;20.00;38281.20
1725902181.269;67;20.00;38281.20
1725902181.320;85;20.00;35611.54
1725902181.369;85;20.00;35611.54
1725902181.419;85;20.00;35611.54
1725902181.469;63;20.00;38949.73
1725902181.519;68;20.00;38216.93
1725902181.570;68;20.00;38216.93
1725902181.619;68;20.00;38216.93
1725902181.669;78;20.00;36652.80
1725902181.719;87;20.00;35221.20
1725902181.770;87;20.00;35221.20
1725902181.819;79;20.00;36523.80
1725902181.870;51;20.00;40688.73
1725902181.920;77;20.00;36862.13
1725902181.970;77;20.00;36862.13
1725902182.020;48;20.00;41166.73
1725902182.070;47;20.00;41429.93
1725902182.120;47;20.00;41429.93
1725902182.170;47;20.00;41429.93
1725902182.221;57;20.00;39836.60
1725902182.270;67;20.00;38293.07
1725902182.320;67;20.00;38293.07
1725902182.370;67;20.00;38293.07
1725902182.420;55;20.00;40167.46
1725902182.470;55;20.00;40167.46
1725902182.520;55;20.00;40167.46
1725902182.571;68;20.00;38132.00
1725902182.620;90;20.00;34873.07
1725902182.670;90;20.00;34873.07
1725902182.722;90;20.00;34873.07
1725902182.771;85;20.00;35620.07
1725902182.820;58;20.00;39638.93
1725902182.870;58;20.00;39638.93
1725902182.921;58;20.00;39638.93
1725902182.971;41;20.00;42237.80
1725902183.021;86;20.00;35505.33
1725902183.072;86;20.00;35505.33
1725902183.122;86;20.00;35505.33
1725902183.172;87;20.00;35338.20
1725902183.222;44;20.00;41883.80
1725902183.271;44;20.00;41883.80
1725902183.321;44;20.00;41883.80
1725902183.371;48;20.00;41201.27
1725902183.423;72;20.00;37548.54
1725902183.472;72;20.00;37548.54
1725902183.522;84;20.00;35735.07
1725902183.572;61;20.00;39297.54
1725902183.723;43;20.00;41944.20
1725902183.923;90;20.00;34816.54
1725902183.973;86;20.00;35428.54
1725902184.024;86;20.00;35428.54
1725902184.074;86;20.00;35428.54
1725902184.124;43;20.00;41961.13
1725902184.174;89;20.00;34934.73
1725902184.225;89;20.00;34934.73
1725902184.275;89;20.00;34934.73
1725902184.325;80;20.00;36338.54
1725902184.425;85;20.00;35530.80
1725902184.475;85;20.00;35530.80
1725902184.526;50;20.00;40861.13
1725902184.576;43;20.00;42004.27
1725902184.626;43;20.00;42004.27
1725902184.676;43;20.00;42004.27
1725902184.725;56;20.00;39929.13
1725902196.020;87;20.00;35299.07
1725902196.070;87;20.00;35299.07
1725902196.119;89;20.00;34942.67
1725902196.170;51;20.00;40715.87
1725902196.219;51;20.00;40715.87
1725902196.270;51;20.00;40715.87
1725902196.320;75;20.00;37043.80
1725902196.370;86;20.00;35433.87
1725902196.420;86;20.00;35439.73
1725902196.470;86;20.00;35439.73
1725902196.521;81;20.00;36236.67
1725902196.570;60;20.00;39405.46
1725902196.621;87;20.00;35273.20
1725902196.671;87;20.00;35273.20
1725902196.722;38;20.00;42738.73
1725902196.772;33;20.00;43478.93
1725902196.822;33;20.00;43478.93
1725902196.873;33;20.00;43478.93
1725902196.923;76;20.00;37017.54
1725902196.973;80;20.00;36314.67
1725902197.023;80;20.00;36314.67
1725902197.073;80;20.00;36314.67
1725902197.123;75;20.00;37130.00
1725902197.174;75;20.00;37130.00
1725902197.224;75;20.00;37130.00
1725902197.273;55;20.00;40085.00
1725902197.323;61;20.00;39245.13
1725902197.376;61;20.00;39245.13
1725902197.423;61;20.00;39212.33
1725902197.474;52;20.00;40626.87
1725902197.523;52;20.00;40626.87
1725902197.574;52;20.00;40626.87
1725902197.624;84;20.00;35730.27
1725902197.673;71;20.00;37709.73
1725902197.724;71;20.00;37709.73
1725902197.774;85;20.00;35595.20
1725902197.825;84;20.00;35704.93
1725902197.874;84;20.00;35704.93
1725902197.926;84;20.00;35704.93
1725902197.975;81;20.00;36250.46
1725902198.026;81;20.00;36234.60
1725902198.076;81;20.00;36234.60
1725902198.176;50;20.00;40851.54
1725902198.226;75;20.00;37086.54
1725902198.277;75;20.00;37086.54
1725902198.327;75;20.00;37086.54
1725902198.377;73;20.00;37377.20
1725902198.426;83;20.00;35884.40
1725902198.477;83;20.00;35884.40
1725902198.528;83;20.00;35884.40
1725902198.578;69;20.00;38077.20
1725902198.628;85;20.00;35589.87
1725902198.679;85;20.00;35589.87
1725902198.729;85;20.00;35589.87
1725902198.779;54;20.00;40268.20
1725902198.829;75;20.00;37065.13
1725902198.879;75;20.00;37065.13
1725902198.930;75;20.00;37065.13
1725902198.980;46;20.00;41522.54
1725902199.029;47;20.00;41346.73
1725902199.080;47;20.00;41346.73
1725902199.129;47;20.00;41346.73
1725902199.179;67;20.00;38400.87
1725902199.230;86;20.00;35408.27
1725902199.280;86;20.00;35408.27
1725902199.329;86;20.00;35408.27
1725902199.379;82;20.00;36081.46
1725902199.430;83;20.00;35851.40
1725902199.479;83;20.00;35851.40
1725902199.530;83;20.00;35851.40
1725902199.579;83;20.00;35851.40
1725902199.780;59;20.00;39550.20
1725902199.879;90;20.00;34826.80
1725902199.929;90;20.00;34826.80
1725902199.980;90;20.00;34826.80
1725902200.029;40;20.00;42483.27
1725902200.080;40;20.00;42483.27
1725902200.129;40;20.00;42483.27
1725902200.180;40;20.00;42483.27
1725902200.230;60;20.00;39465.46
1725902200.280;60;20.00;39465.46
1725902200.330;60;20.00;39465.46
1725902200.380;60;20.00;39465.46
1725902200.430;56;20.00;40025.13
1725902200.480;56;20.00;40025.13
1725902200.530;56;20.00;40025.13
1725902200.580;56;20.00;40025.13
1725902200.630;58;20.00;39744.20
1725902534.319;350;16.67;35165.60
1725902534.570;350;17.61;36949.60
1725902534.620;350;17.61;36949.60
1725902534.670;350;17.23;36229.33
1725902534.720;350;17.23;36229.33
1725902534.769;350;17.23;36229.33
1725902534.820;350;18.21;38087.07
1725902534.870;350;19.81;41105.80
1725902534.920;350;19.34;40218.54
1725902534.971;350;19.34;40218.54
1725902535.072;350;17.37;36493.60
1725902535.122;350;17.60;36930.73
1725902535.172;350;17.60;36930.73
1725902535.272;350;18.75;39104.27
1725902535.321;350;18.75;39104.27
1725902535.371;350;18.75;39104.27
1725902535.422;350;17.34;36444.54
1725902535.472;350;17.72;37167.00
1725902535.521;350;17.72;37167.00
1725902535.571;350;17.55;36829.93
1725902535.621;350;17.47;36676.27
1725902535.672;350;17.47;36676.27
1725902535.721;350;17.47;36676.27
1725902535.771;350;20.60;42605.20
1725902535.822;350;18.88;39358.00
1725902535.871;350;18.88;39358.00
1725902535.921;350;18.88;39358.00
1725902535.971;350;20.40;42233.46
1725902536.022;350;19.78;41053.54
1725902536.073;350;19.78;41053.54
1725902536.122;350;19.78;41053.54
1725902536.173;350;20.05;41573.33
1725902536.224;350;20.21;41872.27
1725902536.274;350;20.21;41872.27
1725902536.324;350;20.21;41872.27
1725902536.375;350;20.85;43086.07
1725902536.424;350;19.64;40788.27
1725902536.474;350;19.64;40788.27
1725902536.526;350;19.64;40788.27
1725902536.575;350;20.62;42641.93
1725902536.626;350;20.14;41742.54
1725902536.677;350;20.14;41742.54
1725902536.726;350;20.14;41742.54
1725902536.777;350;19.08;39723.67
1725902536.826;350;20.53;42474.33
1725902536.876;350;20.53;42474.33
1725902536.927;350;20.53;42474.33
1725902536.976;350;17.03;35858.00
1725902537.027;350;20.19;41829.20
1725902537.077;350;20.19;41829.20
1725902537.127;350;20.19;41829.20
1725902537.177;350;17.30;36368.13
1725902537.231;350;18.83;39266.07
1725902537.278;350;18.83;39266.07
1725902537.327;350;18.83;39266.07
1725902537.377;350;18.83;39266.07
1725902537.427;350;19.42;40372.46
1725902537.479;350;18.77;39145.60
1725902537.529;350;18.77;39145.60
1725902537.579;350;19.18;39918.67
1725902537.629;350;19.99;41448.87
1725902537.679;350;19.99;41448.87
1725902537.729;350;19.99;41448.87
1725902537.779;350;19.80;41086.27
1725902537.829;350;17.94;37565.13
1725902537.879;350;17.94;37565.13
1725902537.929;350;17.94;37565.13
1725902537.979;350;20.75;42886.00
1725902538.029;350;17.87;37440.93
1725902538.079;350;17.87;37440.93
1725902538.129;350;17.87;37440.93
1725902538.180;350;17.84;37394.27
1725902538.229;350;20.53;42466.40
1725902538.280;350;20.53;42466.40
1725902538.330;350;20.53;42466.40
1725902538.380;350;21.00;43360.87
1725902538.429;350;16.59;35026.73
1725902538.480;350;16.59;35026.73
1725902538.530;350;16.59;35026.73
1725902538.580;350;20.68;42750.40
1725902538.630;350;17.22;36209.87
1725902538.680;350;17.22;36209.87
1725902538.730;350;17.22;36209.87
1725902538.780;350;17.22;36209.87
1725902538.831;350;20.15;41755.27
1725902538.881;350;19.82;41130.46
1725902538.932;350;19.82;41130.46
1725902538.983;350;18.61;38850.27
1725902539.033;350;18.97;39526.00
1725902539.083;350;18.97;39526.00
1725902539.132;350;18.97;39526.00
1725902539.183;350;19.95;41375.40
1725902550.863;350;16.96;35722.40
1725902550.914;350;16.96;35722.40
1725902550.965;350;16.96;35722.40
1725902551.015;350;16.71;35246.54
1725902551.064;350;18.02;37727.07
1725902551.115;350;18.02;37727.07
1725902551.164;350;18.02;37727.07
1725902551.215;350;19.94;41354.46
1725902551.265;350;17.38;36506.60
1725902551.315;350;17.38;36506.60
1725902551.364;350;17.38;36506.60
1725902551.414;350;20.50;42418.46
1725902551.465;350;20.68;42754.93
1725902551.514;350;20.68;42754.93
1725902551.565;350;20.68;42754.93
1725902551.615;350;19.28;40112.27
1725902551.665;350;17.45;36653.87
1725902551.715;350;17.45;36653.87
1725902551.765;350;17.45;36653.87
1725902551.815;350;20.65;42697.93
1725902551.865;350;20.89;43156.33
1725902551.915;350;20.89;43156.33
1725902551.965;350;20.89;43156.33
1725902552.017;350;20.68;42760.80
1725902552.068;350;20.18;41815.87
1725902552.117;350;20.39;42211.07
1725902552.167;350;20.39;42211.07
1725902552.217;350;20.39;42211.07
1725902552.269;350;20.62;42645.13
1725902552.318;350;17.16;36097.80
1725902552.369;350;19.64;40789.13
1725902552.419;350;19.64;40789.13
1725902552.469;350;19.64;40789.13
1725902552.519;350;20.74;42866.87
1725902552.569;350;17.87;37450.73
1725902552.619;350;17.87;37450.73
1725902552.669;350;17.87;37450.73
1725902552.719;350;17.69;37110.07
1725902552.769;350;20.43;42288.07
1725902552.819;350;20.43;42288.07
1725902552.869;350;20.64;42691.54
1725902552.919;350;20.73;42861.73
1725902552.968;350;18.14;37951.27
1725902553.019;350;18.14;37951.27
1725902553.069;350;18.67;38963.67
1725902553.119;350;20.53;42478.80
1725902553.169;350;18.26;38176.87
1725902553.219;350;18.26;38176.87
1725902553.269;350;18.26;38176.87
1725902553.319;350;18.65;38918.33
1725902553.369;350;20.84;43052.80
1725902553.419;350;20.84;43052.80
1725902553.469;350;20.84;43052.80
1725902553.520;350;20.20;41855.60
1725902553.570;350;20.54;42502.33
1725902553.619;350;20.54;42502.33
1725902553.670;350;20.54;42502.33
1725902553.719;350;20.36;42149.87
1725902553.769;350;20.76;42914.40
1725902553.820;350;20.76;42914.40
1725902553.870;350;20.76;42914.40
1725902553.920;350;17.52;36776.67
1725902553.969;350;20.58;42577.33
1725902554.019;350;20.58;42577.33
1725902554.070;350;20.58;42577.33
1725902554.119;350;18.33;38309.87
1725902554.170;350;20.85;43082.54
1725902554.220;350;20.85;43082.54
1725902554.270;350;20.85;43082.54
1725902554.320;350;18.97;39520.87
1725902554.369;350;21.30;43931.67
1725902554.420;350;21.30;43931.67
1725902554.470;350;21.30;43931.67
1725902554.520;350;21.12;43587.87
1725902554.570;350;17.05;35890.00
1725902554.619;350;17.05;35890.00
1725902554.670;350;17.05;35890.00
1725902554.719;350;19.37;40279.87
1725902554.769;350;20.81;43011.87
1725902554.820;350;20.81;43011.87
1725902554.870;350;20.81;43011.87
1725902554.920;350;19.56;40636.46
1725902554.970;350;19.12;39807.40
1725902555.020;350;19.12;39807.40
1725902555.070;350;19.12;39807.40
1725902555.119;350;18.06;37798.60
1725902555.170;350;18.69;38985.54
1725902555.220;350;18.69;38985.54
1725902555.271;350;18.69;38985.54
1725902555.320;350;17.15;36076.40
1725902555.370;350;18.61;38845.33
1725902555.420;350;18.61;38845.33
1725902555.471;350;18.61;38845.33
1725902555.520;350;18.73;39072.73
1725902555.570;350;19.63;40779.00
1725902555.620;350;19.63;40779.00
1725902555.670;350;19.63;40779.00
1725902555.720;350;17.72;37155.27
1725902555.770;350;18.50;38641.00
1725902555.820;350;18.50;38641.00
1725902555.871;350;20.74;42881.46
1725902555.922;350;19.28;40117.46
1725902555.972;350;19.64;40799.87
1725902556.021;350;19.64;40799.87
1725902556.072;350;20.66;42725.00
1725902556.122;350;18.92;39432.07
1725902568.078;350;16.75;35318.00
1725902568.129;350;16.98;35756.60
1725902568.179;350;16.98;35756.60
1725902568.229;350;16.98;35756.60
1725902568.279;350;17.93;37557.27
1725902568.329;350;18.94;39473.54
1725902568.379;350;18.94;39473.54
1725902568.429;350;20.13;41715.67
1725902568.479;350;19.62;40744.60
1725902568.529;350;19.62;40744.60
1725902568.579;350;19.43;40401.80
1725902568.629;350;17.68;37088.00
1725902568.679;350;17.49;36714.13
1725902568.728;350;17.49;36714.13
1725902568.778;350;20.25;41946.73
1725902568.829;350;17.06;35906.40
1725902568.879;350;17.57;36865.60
1725902568.929;350;17.57;36865.60
1725902568.979;350;17.98;37651.60
1725902569.029;350;17.93;37554.54
1725902569.079;350;16.63;35100.13
1725902569.129;350;16.63;35100.13
1725902569.179;350;17.05;35888.80
1725902569.229;350;19.42;40372.67
1725902569.279;350;17.34;36447.73
1725902569.329;350;17.34;36447.73
1725902569.379;350;17.34;36447.73
1725902569.429;350;18.69;38986.87
1725902569.479;350;20.56;42528.07
1725902569.529;350;20.56;42528.07
1725902569.579;350;20.56;42528.07
1725902569.629;350;19.15;39870.54
1725902569.679;350;20.46;42336.40
1725902569.728;350;20.46;42336.40
1725902569.779;350;20.46;42336.40
1725902569.829;350;20.84;43058.40
1725902569.879;350;19.15;39869.87
1725902569.929;350;19.15;39869.87
1725902569.979;350;19.15;39869.87
1725902570.029;350;19.20;39964.73
1725902570.079;350;20.25;41954.60
1725902570.129;350;20.25;41954.60
1725902570.179;350;20.25;41954.60
1725902570.229;350;20.55;42517.40
1725902570.279;350;20.69;42780.60
1725902570.329;350;20.69;42780.60
1725902570.380;350;20.49;42408.73
1725902570.429;350;17.20;36172.80
1725902570.479;350;17.20;36172.80
1725902570.529;350;17.20;36172.80
1725902570.579;350;16.66;35152.00
1725902570.629;350;18.47;38577.00
1725902570.679;350;19.82;41134.00
1725902570.729;350;19.82;41134.00
1725902570.780;350;20.01;41487.13
1725902570.830;350;20.25;41941.73
1725902571.080;350;18.51;38653.13
1725902571.131;350;16.77;35361.07
1725902571.180;350;16.77;35361.07
1725902571.230;350;16.77;35361.07
1725902571.281;350;19.86;41210.00
1725902571.332;350;17.91;37519.93
1725902571.382;350;17.91;37519.93
1725902571.432;350;17.91;37519.93
1725902571.481;350;20.23;41908.00
1725902571.532;350;19.36;40253.60
1725902571.582;350;19.36;40253.60
1725902571.632;350;19.29;40131.46
1725902571.683;350;20.13;41715.13
1725902571.733;350;20.13;41715.13
1725902571.782;350;20.13;41715.13
1725902571.833;350;19.60;40722.54
1725902571.883;350;20.23;41901.80
1725902571.933;350;20.23;41901.80
1725902571.983;350;20.23;41901.80
1725902572.033;350;19.93;41343.27
1725902572.083;350;18.65;38914.80
1725902572.134;350;18.65;38914.80
1725902572.185;350;18.65;38914.80
1725902572.235;350;20.13;41713.67
1725902572.285;350;20.98;43333.46
1725902572.335;350;20.98;43333.46
1725902572.384;350;20.98;43333.46
1725902572.435;350;20.77;42921.07
1725902572.484;350;20.88;43142.80
1725902572.535;350;20.88;43142.80
1725902572.584;350;20.88;43142.80
1725902572.636;350;20.27;41987.87
1725902572.686;350;20.83;43036.00
1725902572.735;350;20.83;43036.00
1725902572.786;350;20.83;43036.00
1725902572.838;350;20.73;42844.80
1725902572.886;350;19.93;41336.54
1725902773.350;200;16.57;34985.20
1725902773.400;200;16.76;35336.67
1725902773.450;200;16.76;35336.67
1725902773.499;200;16.76;35336.67
1725902773.550;200;17.11;36009.07
1725902773.600;200;17.11;36009.07
1725902773.649;200;17.11;36009.07
1725902773.700;200;17.11;36009.07
1725902773.750;200;18.03;37740.73
1725902773.800;200;17.81;37320.13
1725902773.850;200;17.81;37320.13
1725902773.900;200;17.81;37320.13
1725902773.949;200;20.89;43149.93
1725902774.000;200;20.89;43149.93
1725902774.050;200;20.89;43149.93
1725902774.100;200;20.89;43149.93
1725902774.150;200;20.50;42426.20
1725902774.200;200;16.95;35691.93
1725902774.249;200;17.10;35978.13
1725902774.299;200;17.10;35978.13
1725902774.349;200;16.39;34642.00
1725902774.399;200;18.51;38646.93
1725902774.450;200;19.04;39659.73
1725902774.500;200;19.04;39659.73
1725902774.550;200;19.04;39659.73
1725902774.600;200;17.72;37150.00
1725902774.650;200;17.72;37150.00
1725902774.700;200;17.72;37150.00
1725902774.750;200;18.77;39136.73
1725902774.800;200;20.95;43279.20
1725902774.850;200;19.86;41207.40
1725902774.900;200;19.86;41207.40
1725902774.950;200;19.86;41207.40
1725902775.000;200;20.45;42319.67
1725902775.050;200;20.60;42605.67
1725902775.100;200;20.60;42605.67
1725902775.150;200;20.60;42605.67
1725902775.200;200;16.84;35497.13
1725902775.250;200;21.00;43365.27
1725902775.300;200;21.00;43365.27
1725902775.351;200;20.41;42256.07
1725902775.401;200;18.10;37884.54
1725902775.451;200;18.10;37884.54
1725902775.501;200;18.10;37884.54
1725902775.551;200;16.74;35297.20
1725902775.601;200;19.06;39687.60
1725902775.651;200;16.87;35554.80
1725902775.702;200;16.87;35554.80
1725902775.752;200;16.81;35440.40
1725902775.802;200;20.69;42770.67
1725902775.851;200;18.63;38877.73
1725902775.903;200;18.63;38877.73
1725902775.953;200;17.64;37005.60
1725902776.003;200;19.85;41196.80
1725902776.054;200;20.82;43023.40
1725902776.103;200;20.82;43023.40
1725902776.154;200;20.82;43023.40
1725902776.205;200;16.70;35223.46
1725902776.254;200;16.68;35199.20
1725902776.305;200;16.68;35199.20
1725902776.356;200;16.68;35199.20
1725902776.405;200;16.49;34823.73
1725902776.455;200;18.42;38483.80
1725902776.505;200;18.42;38483.80
1725902776.556;200;20.35;42144.33
1725902776.606;200;16.56;34959.73
1725902776.655;200;16.56;34959.73
1725902776.706;200;16.56;34959.73
1725902776.757;200;18.08;37835.20
1725902776.806;200;18.03;37751.33
1725902776.858;200;18.03;37751.33
1725902776.907;200;18.03;37751.33
1725902776.957;200;20.57;42560.33
1725902777.007;200;19.59;40700.87
1725902777.058;200;19.59;40700.87
1725902777.108;200;19.59;40700.87
1725902777.158;200;19.36;40261.67
1725902777.208;200;17.34;36448.13
1725902777.259;200;17.34;36448.13
1725902777.309;200;17.34;36448.13
1725902777.359;200;21.02;43407.93
1725902777.409;200;20.11;41673.33
1725902777.459;200;20.47;42358.93
1725902777.508;200;20.47;42358.93
1725902777.558;200;20.47;42358.93
1725902777.609;200;18.49;38613.27
1725902777.658;200;19.80;41087.93
1725902777.709;200;19.80;41087.93
1725902777.759;200;19.80;41087.93
1725902777.859;200;19.65;40811.46
1725902777.910;200;19.65;40811.46
1725902777.960;200;19.65;40811.46
1725902778.059;200;20.48;42387.00
1725902778.110;200;20.48;42387.00
1725902778.159;200;20.48;42387.00
1725902778.210;200;17.08;35938.00
1725902778.260;200;18.61;38839.33
1725902778.309;200;18.61;38839.33
1725902778.359;200;18.61;38839.33
1725902778.410;200;19.73;40967.73
1725902778.460;200;18.48;38596.00
1725902778.510;200;18.48;38596.00
1725902778.560;200;18.48;38596.00
1725902778.609;200;17.19;36158.13
1725902790.429;200;16.62;35082.13
1725902790.479;200;16.67;35176.27
1725902790.529;200;16.67;35176.27
1725902790.579;200;16.67;35176.27
1725902790.629;200;18.02;37727.00
1725902790.679;200;18.02;37727.00
1725902790.730;200;18.02;37727.00
1725902790.779;200;17.72;37157.07
1725902790.829;200;19.47;40464.20
1725902790.880;200;19.47;40464.20
1725902790.930;200;19.47;40464.20
1725902790.980;200;19.79;41080.87
1725902791.030;200;19.68;40871.00
1725902791.080;200;19.68;40871.00
1725902791.129;200;19.68;40871.00
1725902791.179;200;17.52;36771.46
1725902791.230;200;18.32;38300.93
1725902791.280;200;18.32;38300.93
1725902791.330;200;18.32;38300.93
1725902791.380;200;20.05;41565.07
1725902791.430;200;19.70;40912.20
1725902791.631;200;19.99;41446.27
1725902791.681;200;16.81;35430.93
1725902791.731;200;16.81;35430.93
1725902791.782;200;16.81;35430.93
1725902791.831;200;17.29;36338.87
1725902791.881;200;16.68;35183.60
1725902791.931;200;16.68;35183.60
1725902791.982;200;16.68;35183.60
1725902792.031;200;20.20;41843.27
1725902792.082;200;19.57;40657.93
1725902792.132;200;19.57;40657.93
1725902792.182;200;19.57;40657.93
1725902792.233;200;16.49;34831.07
1725902792.283;200;16.56;34966.73
1725902792.332;200;16.56;34966.73
1725902792.383;200;20.07;41598.67
1725902792.433;200;18.81;39219.93
1725902792.482;200;18.81;39219.93
1725902792.534;200;18.81;39219.93
1725902792.584;200;19.30;40140.93
1725902792.634;200;20.44;42307.80
1725902792.684;200;20.44;42307.80
1725902792.735;200;20.44;42307.80
1725902792.786;200;20.71;42813.46
1725902792.836;200;21.13;43610.33
1725902792.885;200;21.13;43610.33
1725902792.935;200;21.13;43610.33
1725902792.986;200;18.23;38117.54
1725902793.036;200;20.36;42150.27
1725902793.085;200;20.36;42150.27
1725902793.136;200;20.36;42150.27
1725902793.186;200;20.52;42461.60
1725902793.236;200;19.39;40312.20
1725902793.287;200;19.39;40312.20
1725902793.336;200;19.39;40312.20
1725902793.387;200;20.92;43222.13
1725902793.436;200;19.91;41302.46
1725902793.487;200;20.02;41504.07
1725902793.537;200;20.02;41504.07
1725902793.588;200;20.02;41504.07
1725902793.638;200;17.09;35973.60
1725902793.689;200;16.92;35652.54
1725902793.738;200;16.92;35652.54
1725902793.788;200;16.92;35652.54
1725902793.839;200;20.39;42203.93
1725902793.889;200;20.39;42203.93
1725902793.939;200;20.39;42203.93
1725902793.989;200;21.04;43435.80
1725902794.040;200;17.86;37426.27
1725902794.089;200;19.53;40581.54
1725902794.139;200;19.53;40581.54
1725902794.189;200;19.57;40666.20
1725902794.238;200;17.71;37137.67
1725902794.289;200;17.28;36320.54
1725902794.339;200;17.28;36320.54
1725902794.389;200;17.28;36320.54
1725902794.440;200;16.77;35362.13
1725902794.489;200;19.29;40136.67
1725902794.540;200;19.29;40136.67
1725902794.590;200;19.29;40136.67
1725902794.640;200;20.81;42999.00
1725902794.690;200;18.79;39184.00
1725902794.740;200;18.79;39184.00
1725902794.790;200;18.79;39184.00
1725902794.840;200;16.90;35606.20
1725902794.890;200;16.90;35606.20
1725902794.941;200;16.90;35606.20
1725902794.991;200;16.86;35524.54
1725902795.041;200;20.30;42038.93
1725902795.091;200;20.30;42038.93
1725902795.141;200;20.30;42038.93
1725902795.190;200;19.90;41285.46
1725902795.241;200;20.73;42849.33
1725902795.291;200;20.73;42849.33
1725902795.341;200;20.73;42849.33
1725902795.391;200;20.89;43158.87
1725902795.442;200;20.77;42938.00
1725902795.491;200;20.77;42938.00
1725902795.541;200;20.77;42938.00
1725902795.591;200;19.67;40846.54
1725902795.641;200;16.78;35374.00
1725902807.331;200;17.49;36719.46
1725902807.382;200;17.95;37595.73
1725902807.432;200;17.95;37595.73
1725902807.481;200;16.99;35781.07
1725902807.531;200;19.51;40545.46
1725902807.581;200;17.97;37632.73
1725902807.631;200;17.97;37632.73
1725902807.681;200;19.21;39978.13
1725902807.733;200;20.00;41467.20
1725902807.783;200;18.11;37889.07
1725902807.833;200;18.11;37889.07
1725902807.882;200;16.59;35014.13
1725902807.932;200;17.09;35961.20
1725902807.983;200;16.73;35286.87
1725902808.034;200;16.73;35286.87
1725902808.084;200;17.76;37236.60
1725902808.133;200;20.51;42438.73
1725902808.184;200;20.40;42227.46
1725902808.234;200;20.40;42227.46
1725902808.284;200;20.40;42227.46
1725902808.334;200;19.15;39862.60
1725902808.385;200;17.36;36478.87
1725902808.435;200;17.36;36478.87
1725902808.485;200;17.36;36478.87
1725902808.535;200;20.46;42335.80
1725902808.585;200;19.80;41086.07
1725902808.635;200;19.80;41086.07
1725902808.685;200;19.99;41444.60
1725902808.734;200;20.86;43097.00
1725902808.786;200;20.86;43097.00
1725902808.836;200;20.86;43097.00
1725902808.885;200;16.65;35126.73
1725902808.935;200;20.36;42162.73
1725902808.986;200;20.36;42162.73
1725902809.036;200;20.36;42162.73
1725902809.087;200;20.14;41745.13
1725902809.137;200;20.33;42087.93
1725902809.187;200;20.33;42087.93
1725902809.236;200;20.79;42966.07
1725902809.286;200;18.86;39308.87
1725902809.336;200;18.86;39308.87
1725902809.388;200;18.86;39308.87
1725902809.438;200;20.02;41518.67
1725902809.488;200;19.81;41118.67
1725902809.538;200;19.81;41118.67
1725902809.588;200;19.81;41118.67
1725902809.638;200;16.56;34955.60
1725902809.688;200;18.93;39444.67
1725902809.738;200;18.93;39444.67
1725902809.788;200;18.93;39444.67
1725902809.839;200;17.10;35984.27
1725902809.888;200;20.15;41761.07
1725902809.938;200;20.15;41761.07
1725902809.988;200;20.15;41761.07
1725902810.038;200;20.24;41934.27
1725902810.089;200;19.43;40389.60
1725902810.139;200;19.43;40389.60
1725902810.188;200;19.43;40389.60
1725902810.239;200;20.00;41466.40
1725902810.439;200;20.44;42302.40
1725902810.639;200;19.48;40489.07
1725902811.040;200;16.81;35437.80
1725902811.089;200;16.52;34894.13
1725902811.140;200;16.52;34894.13
1725902811.190;200;16.89;35579.33
1725902811.240;200;18.57;38774.40
1725902811.290;200;17.74;37198.13
1725902811.340;200;17.74;37198.13
1725902811.390;200;19.78;41056.33
1725902811.440;200;20.53;42467.40
1725902811.490;200;20.53;42467.40
1725902811.540;200;20.53;42467.40
1725902811.591;200;19.22;39999.54
1725902811.641;200;19.22;39999.54
1725902811.690;200;19.22;39999.54
1725902811.741;200;18.76;39133.07
1725902811.791;200;19.70;40908.20
1725902811.841;200;19.70;40908.20
1725902811.891;200;16.97;35731.20
1725903035.638;88;10.00;35092.54
1725903035.688;88;10.00;35092.54
1725903035.738;88;10.00;35092.54
1725903035.788;77;10.00;36744.80
1725903035.838;54;10.00;40337.73
1725903035.888;54;10.00;40337.73
1725903035.938;69;10.00;38022.40
1725903035.988;82;10.00;36023.87
1725903036.038;82;10.00;36023.87
1725903036.088;82;10.00;36023.87
1725903036.138;42;10.00;42077.33
1725903036.188;73;10.00;37411.60
1725903036.238;76;10.00;36984.80
1725903036.288;76;10.00;36984.80
1725903036.339;61;10.00;39219.27
1725903036.389;82;10.00;35978.27
1725903036.438;82;10.00;35978.27
1725903036.488;82;10.00;35978.27
1725903036.539;86;10.00;35476.00
1725903036.589;56;10.00;40021.54
1725903036.638;70;10.00;37901.27
1725903036.688;70;10.00;37901.27
1725903036.738;70;10.00;37901.27
1725903036.789;76;10.00;36936.13
1725903036.838;72;10.00;37565.80
1725903036.888;72;10.00;37565.80
1725903036.939;72;10.00;37565.80
1725903036.988;85;10.00;35583.13
1725903037.038;86;10.00;35482.46
1725903037.088;86;10.00;35482.46
1725903037.138;86;10.00;35482.46
1725903037.189;59;10.00;39522.80
1725903037.239;41;10.00;42266.73
1725903037.289;41;10.00;42266.73
1725903037.338;41;10.00;42266.73
1725903037.388;56;10.00;39941.80
1725903037.439;57;10.00;39864.40
1725903037.488;57;10.00;39864.40
1725903037.538;69;10.00;37996.20
1725903037.588;89;10.00;34964.93
1725903037.638;72;10.00;37621.40
1725903037.688;72;10.00;37621.40
1725903037.741;50;10.00;40967.33
1725903037.791;45;10.00;41751.46
1725903037.841;77;10.00;36780.80
1725903037.891;77;10.00;36780.80
1725903037.941;58;10.00;39630.00
1725903037.990;59;10.00;39616.13
1725903038.041;79;10.00;36489.07
1725903038.091;79;10.00;36489.07
1725903038.141;85;10.00;35591.73
1725903038.191;78;10.00;36709.73
1725903038.242;78;10.00;36709.73
1725903038.292;78;10.00;36709.73
1725903038.343;55;10.00;40090.40
1725903038.393;71;10.00;37652.27
1725903038.443;80;10.00;36400.13
1725903038.492;80;10.00;36400.13
1725903038.544;80;10.00;36400.13
1725903038.593;75;10.00;37126.27
1725903038.644;43;10.00;42056.60
1725903038.694;43;10.00;42056.60
1725903038.744;43;10.00;42056.60
1725903038.794;56;10.00;40005.13
1725903038.844;76;10.00;37011.07
1725903038.894;76;10.00;37011.07
1725903038.946;76;10.00;37011.07
1725903038.995;79;10.00;36424.67
1725903039.046;68;10.00;38127.87
1725903039.096;68;10.00;38127.87
1725903039.146;64;10.00;38821.67
1725903039.196;76;10.00;37004.00
1725903039.346;67;10.00;38345.33
1725903039.549;89;10.00;35048.67
1725903039.599;87;10.00;35289.07
1725903039.649;87;10.00;35289.07
1725903039.698;74;10.00;37261.54
1725903039.749;64;10.00;38811.20
1725903039.799;64;10.00;38811.20
1725903039.849;64;10.00;38811.20
1725903039.899;52;10.00;40625.67
1725903039.949;45;10.00;41679.93
1725903039.999;45;10.00;41679.93
1725903040.049;45;10.00;41679.93
1725903040.099;56;10.00;40074.54
1725903040.149;58;10.00;39668.54
1725903040.199;58;10.00;39668.54
1725903040.249;58;10.00;39668.54
1725903040.299;86;10.00;35446.00
1725903040.349;52;10.00;40612.60
1725903040.400;52;10.00;40612.60
1725903040.449;52;10.00;40612.60
1725903040.500;43;10.00;42049.33
1725903052.239;81;10.00;36152.00
1725903052.289;86;10.00;35458.27
1725903052.339;86;10.00;35458.27
1725903052.389;86;10.00;35458.27
1725903052.440;65;10.00;38671.27
1725903052.490;66;10.00;38511.00
1725903052.540;66;10.00;38511.00
1725903052.590;66;10.00;38511.00
1725903052.640;36;10.00;43006.80
1725903052.690;36;10.00;43006.80
1725903052.740;36;10.00;43006.80
1725903052.789;36;10.00;43006.80
1725903052.841;63;10.00;38995.40
1725903052.891;63;10.00;38995.40
1725903052.941;63;10.00;38995.40
1725903052.991;63;10.00;38995.40
1725903053.042;75;10.00;37141.40
1725903053.092;81;10.00;36192.67
1725903053.148;81;10.00;36192.67
1725903053.197;73;10.00;37418.40
1725903053.246;64;10.00;38781.93
1725903053.296;64;10.00;38781.93
1725903053.348;64;10.00;38781.93
1725903053.398;60;10.00;39361.13
1725903053.448;84;10.00;35664.13
1725903053.498;84;10.00;35664.13
1725903053.548;84;10.00;35664.13
1725903053.598;79;10.00;36511.60
1725903053.648;61;10.00;39314.73
1725903053.698;61;10.00;39314.73
1725903053.748;52;10.00;40622.27
1725903053.798;49;10.00;41015.07
1725903053.848;49;10.00;41026.46
1725903053.898;49;10.00;41026.46
1725903053.948;86;10.00;35500.54
1725903053.998;75;10.00;37141.07
1725903054.048;75;10.00;37141.07
1725903054.098;75;10.00;37141.07
1725903054.148;77;10.00;36855.46
1725903054.198;89;10.00;35016.93
1725903054.248;59;10.00;39542.80
1725903054.298;59;10.00;39542.80
1725903054.349;59;10.00;39576.13
1725903054.399;80;10.00;36316.54
1725903054.450;81;10.00;36187.13
1725903054.499;81;10.00;36187.13
1725903054.549;81;10.00;36187.13
1725903054.599;80;10.00;36328.60
1725903054.649;84;10.00;35772.93
1725903054.699;84;10.00;35772.93
1725903054.750;84;10.00;35772.93
1725903054.799;59;10.00;39543.46
1725903054.850;49;10.00;41135.00
1725903054.899;49;10.00;41135.00
1725903054.949;49;10.00;41135.00
1725903054.999;51;10.00;40825.67
1725903055.050;43;10.00;41910.73
1725903055.100;43;10.00;41910.73
1725903055.150;43;10.00;41910.73
1725903055.199;63;10.00;38981.54
1725903055.250;70;10.00;37810.93
1725903055.301;70;10.00;37810.93
1725903055.351;70;10.00;37810.93
1725903055.400;70;10.00;37810.93
1725903055.450;46;10.00;41480.73
1725903055.500;46;10.00;41480.73
1725903055.551;46;10.00;41480.73
1725903055.600;46;10.00;41480.73
1725903055.650;57;10.00;39862.80
1725903055.700;85;10.00;35578.00
1725903055.750;85;10.00;35578.00
1725903055.801;85;10.00;35578.00
1725903055.850;84;10.00;35765.80
1725903055.900;75;10.00;37145.20
1725903055.951;72;10.00;37523.27
1725903056.000;72;10.00;37523.27
1725903056.051;63;10.00;38972.80
1725903056.102;58;10.00;39747.93
1725903056.152;58;10.00;39747.93
1725903056.203;58;10.00;39747.93
1725903056.252;77;10.00;36826.67
1725903056.303;70;10.00;37867.93
1725903056.353;87;10.00;35234.80
1725903056.402;87;10.00;35234.80
1725903056.452;87;10.00;35234.80
1725903056.504;78;10.00;36658.13
1725903056.554;60;10.00;39395.60
1725903056.603;60;10.00;39395.60
1725903056.653;60;10.00;39395.60
1725903056.704;91;10.00;34692.93
1725903056.754;56;10.00;40021.93
1725903056.804;56;10.00;40021.93
1725903056.854;56;10.00;40021.93
1725903056.905;89;10.00;35023.13
1725903056.955;87;10.00;35348.00
1725903057.005;87;10.00;35348.00
1725903057.054;63;10.00;38993.93
1725903057.105;68;10.00;38201.20
1725903069.793;89;10.00;35005.46
1725903069.844;90;10.00;34796.27
1725903069.894;90;10.00;34796.27
1725903069.945;89;10.00;35021.60
1725903069.994;50;10.00;40889.93
1725903070.046;50;10.00;40889.93
1725903070.096;50;10.00;40889.93
1725903070.146;85;10.00;35518.54
1725903070.196;85;10.00;35518.54
1725903070.245;85;10.00;35518.54
1725903070.297;86;10.00;35425.33
1725903070.347;66;10.00;38474.67
1725903070.397;66;10.00;38474.67
1725903070.446;66;10.00;38474.67
1725903070.497;77;10.00;36841.60
1725903070.546;83;10.00;35945.46
1725903070.597;83;10.00;35945.46
1725903070.646;83;10.00;35945.46
1725903070.697;83;10.00;35846.93
1725903070.746;62;10.00;39154.60
1725903070.798;66;10.00;38476.07
1725903070.847;66;10.00;38476.07
1725903070.897;47;10.00;41374.27
1725903070.947;53;10.00;40431.54
1725903070.998;53;10.00;40491.93
1725903071.048;53;10.00;40491.93
1725903071.098;56;10.00;39982.46
1725903071.148;84;10.00;35800.33
1725903071.198;74;10.00;37305.33
1725903071.248;74;10.00;37305.33
1725903071.298;74;10.00;37305.33
1725903071.349;68;10.00;38185.67
1725903071.398;58;10.00;39738.00
1725903071.448;58;10.00;39738.00
1725903071.498;58;10.00;39738.00
1725903071.548;81;10.00;36135.07
1725903071.599;73;10.00;37420.80
1725903071.648;73;10.00;37420.80
1725903071.699;73;10.00;37420.80
1725903071.748;51;10.00;40751.40
1725903071.799;50;10.00;40866.07
1725903071.849;50;10.00;40866.07
1725903071.899;50;10.00;40866.07
1725903071.948;59;10.00;39541.46
1725903071.998;53;10.00;40436.33
1725903072.049;53;10.00;40436.33
1725903072.099;53;10.00;40436.33
1725903072.149;68;10.00;38188.27
1725903072.200;47;10.00;41328.60
1725903072.250;47;10.00;41328.60
1725903072.300;61;10.00;39176.87
1725903072.349;58;10.00;39702.40
1725903072.399;58;10.00;39702.40
1725903072.449;58;10.00;39702.40
1725903072.500;47;10.00;41331.73
1725903072.550;69;10.00;37978.80
1725903072.599;69;10.00;37978.80
1725903072.650;69;10.00;37978.80
1725903072.701;67;10.00;38337.60
1725903072.751;67;10.00;38337.60
1725903072.801;67;10.00;38337.60
1725903072.851;67;10.00;38337.60
1725903072.901;56;10.00;39939.60
1725903072.951;52;10.00;40597.13
1725903073.001;52;10.00;40597.13
1725903073.052;52;10.00;40597.13
1725903073.102;53;10.00;40495.40
1725903073.152;51;10.00;40725.87
1725903073.203;51;10.00;40725.87
1725903073.253;51;10.00;40725.87
1725903073.352;66;10.00;38468.00
1725903073.403;49;10.00;41070.46
1725903073.452;49;10.00;41070.46
1725903073.554;50;10.00;40960.00
1725903073.604;50;10.00;40960.00
1725903073.653;50;10.00;40960.00
1725903073.703;90;10.00;34810.93
1725903073.753;47;10.00;41420.20
1725903073.803;47;10.00;41420.20
1725903073.853;47;10.00;41420.20
1725903073.903;90;10.00;34758.67
1725903073.953;72;10.00;37509.46
1725903074.103;82;10.00;36009.60
1725903074.154;89;10.00;34939.13
1725903074.204;86;10.00;35365.46
1725903074.254;86;10.00;35365.46
1725903074.305;84;10.00;35808.54
1725903074.356;87;10.00;35216.13
1725903296.358;79;40.00;36566.13
1725903296.559;87;40.00;35249.07
1725903296.609;87;40.00;35249.07
1725903296.658;87;40.00;35249.07
1725903296.708;81;40.00;36210.13
1725903296.758;37;40.00;42888.60
1725903296.808;37;40.00;42888.60
1725903296.858;37;40.00;42888.60
1725903296.908;65;40.00;38576.87
1725903296.958;58;40.00;39709.40
1725903297.008;58;40.00;39709.40
1725903297.059;58;40.00;39709.40
1725903297.109;80;40.00;36420.87
1725903297.158;53;40.00;40495.00
1725903297.208;53;40.00;40495.00
1725903297.258;53;40.00;40495.00
1725903297.308;30;40.00;43968.87
1725903297.358;80;40.00;36390.67
1725903297.408;80;40.00;36390.67
1725903297.458;58;40.00;39628.60
1725903297.508;83;40.00;35896.60
1725903297.558;82;40.00;36024.40
1725903297.609;82;40.00;36024.40
1725903297.658;88;40.00;35083.60
1725903297.708;45;40.00;41739.73
1725903297.758;45;40.00;41739.73
1725903297.808;45;40.00;41739.73
1725903297.858;77;40.00;36835.46
1725903297.908;90;40.00;34758.54
1725903297.958;90;40.00;34758.54
1725903298.008;90;40.00;34758.54
1725903298.058;76;40.00;37032.13
1725903298.108;77;40.00;36835.80
1725903298.158;77;40.00;36835.80
1725903298.209;40;40.00;42385.67
1725903298.258;80;40.00;36335.60
1725903298.309;80;40.00;36335.60
1725903298.359;68;40.00;38108.20
1725903298.409;56;40.00;40007.46
1725903298.458;56;40.00;40007.46
1725903298.509;56;40.00;40007.46
1725903298.559;38;40.00;42729.93
1725903298.609;56;40.00;40076.93
1725903298.658;56;40.00;40076.93
1725903298.708;56;40.00;40076.93
1725903298.758;68;40.00;38183.80
1725903298.809;55;40.00;40221.60
1725903298.859;55;40.00;40221.60
1725903298.909;55;40.00;40221.60
1725903298.959;60;40.00;39451.00
1725903299.009;86;40.00;35508.46
1725903299.059;82;40.00;35974.27
1725903299.109;82;40.00;35974.27
1725903299.159;82;40.00;35974.27
1725903299.209;86;40.00;35504.54
1725903299.259;73;40.00;37414.33
1725903299.309;73;40.00;37414.33
1725903299.359;73;40.00;37414.33
1725903299.409;78;40.00;36718.40
1725903299.459;29;40.00;44133.87
1725903299.509;29;40.00;44133.87
1725903299.560;29;40.00;44133.87
1725903299.609;42;40.00;42208.07
1725903299.659;48;40.00;41296.87
1725903299.709;48;40.00;41296.87
1725903299.759;48;40.00;41296.87
1725903299.809;59;40.00;39502.80
1725903299.859;58;40.00;39637.60
1725903299.909;58;40.00;39637.60
1725903299.959;58;40.00;39637.60
1725903300.009;57;40.00;39819.27
1725903300.059;37;40.00;42944.54
1725903300.109;37;40.00;42944.54
1725903300.159;37;40.00;42944.54
1725903300.210;70;40.00;37869.67
1725903300.260;59;40.00;39525.27
1725903300.311;59;40.00;39525.27
1725903300.360;39;40.00;42555.27
1725903300.411;36;40.00;43086.40
1725903300.460;71;40.00;37760.80
1725903300.510;71;40.00;37760.80
1725903300.560;79;40.00;36523.40
1725903300.610;74;40.00;37198.80
1725903300.661;74;40.00;37198.80
1725903300.710;74;40.00;37198.80
1725903300.760;61;40.00;39269.13
1725903300.810;55;40.00;40209.07
1725903300.861;76;40.00;36943.13
1725903300.911;76;40.00;36943.13
1725903300.962;87;40.00;35294.13
1725903301.012;64;40.00;38788.87
1725903301.062;36;40.00;43031.73
1725903301.111;36;40.00;43031.73
1725903301.162;36;40.00;43031.73
1725903301.212;25;40.00;44743.00
1725903301.261;65;40.00;38692.46
1725903313.200;90;40.00;34752.20
1725903313.553;89;40.00;34958.67
1725903313.602;82;40.00;36023.46
1725903313.653;82;40.00;36023.46
1725903313.703;54;40.00;40280.33
1725903313.752;67;40.00;38260.60
1725903313.803;67;40.00;38260.60
1725903313.852;67;40.00;38260.60
1725903313.903;36;40.00;42977.40
1725903313.953;36;40.00;42977.40
1725903314.004;36;40.00;42977.40
1725903314.054;36;40.00;42977.40
1725903314.104;30;40.00;43907.93
1725903314.154;30;40.00;43907.93
1725903314.204;30;40.00;43907.93
1725903314.254;51;40.00;40772.93
1725903314.304;62;40.00;39086.93
1725903314.355;62;40.00;39086.93
1725903314.404;62;40.00;39086.93
1725903314.455;70;40.00;37870.13
1725903314.505;69;40.00;38030.33
1725903314.555;69;40.00;38030.33
1725903314.605;69;40.00;38030.33
1725903314.654;56;40.00;39964.13
1725903314.706;85;40.00;35527.93
1725903314.756;85;40.00;35527.93
1725903314.806;85;40.00;35527.93
1725903314.857;72;40.00;37574.54
1725903314.907;37;40.00;42905.54
1725903314.958;37;40.00;42905.54
1725903315.008;37;40.00;42905.54
1725903315.058;77;40.00;36860.13
1725903315.108;61;40.00;39286.54
1725903315.158;61;40.00;39286.54
1725903315.208;90;40.00;34822.93
1725903315.258;83;40.00;35958.13
1725903315.308;83;40.00;35958.13
1725903315.358;83;40.00;35958.13
1725903315.408;32;40.00;43596.20
1725903315.458;27;40.00;44466.13
1725903315.508;27;40.00;44466.13
1725903315.558;27;40.00;44466.13
1725903315.608;44;40.00;41767.33
1725903315.658;44;40.00;41767.33
1725903315.708;44;40.00;41767.33
1725903315.759;44;40.00;41767.33
1725903315.808;73;40.00;37360.20
1725903315.858;73;40.00;37360.20
1725903315.908;73;40.00;37360.20
1725903315.959;78;40.00;36653.54
1725903316.010;56;40.00;39969.27
1725903316.059;56;40.00;39969.27
1725903316.109;56;40.00;39969.27
1725903316.160;41;40.00;42253.27
1725903316.209;70;40.00;37857.20
1725903316.260;70;40.00;37857.20
1725903316.310;70;40.00;37857.20
1725903316.360;77;40.00;36769.20
1725903316.410;77;40.00;36837.73
1725903316.459;77;40.00;36837.73
1725903316.511;75;40.00;37160.00
1725903316.560;79;40.00;36430.80
1725903316.611;90;40.00;34815.73
1725903316.661;90;40.00;34815.73
1725903316.711;82;40.00;36093.33
1725903316.761;47;40.00;41325.54
1725903316.811;47;40.00;41325.54
1725903316.861;47;40.00;41325.54
1725903316.912;30;40.00;43914.87
1725903316.961;64;40.00;38746.33
1725903317.012;91;40.00;34702.54
1725903317.062;91;40.00;34702.54
1725903317.112;91;40.00;34702.54
1725903317.163;89;40.00;35030.67
1725903317.213;36;40.00;43069.27
1725903317.263;36;40.00;43069.27
1725903317.314;36;40.00;43069.27
1725903317.363;35;40.00;43266.33
1725903317.414;85;40.00;35609.13
1725903317.464;85;40.00;35609.13
1725903317.515;85;40.00;35609.13
1725903317.565;79;40.00;36449.73
1725903317.616;69;40.00;38069.93
1725903317.666;69;40.00;38069.93
1725903317.716;69;40.00;38069.93
1725903317.766;32;40.00;43725.87
1725903317.816;53;40.00;40399.27
1725903317.867;53;40.00;40399.27
1725903317.918;53;40.00;40399.27
1725903317.968;88;40.00;35110.80
1725903330.764;88;40.00;35181.60
1725903330.813;88;40.00;35181.60
1725903330.864;88;40.00;35181.60
1725903330.914;89;40.00;35002.67
1725903330.965;81;40.00;36130.27
1725903331.014;84;40.00;35756.80
1725903331.066;84;40.00;35756.80
1725903331.116;84;40.00;35756.80
1725903331.166;52;40.00;40620.07
1725903331.215;29;40.00;44114.27
1725903331.266;29;40.00;44114.27
1725903331.315;29;40.00;44114.27
1725903331.365;68;40.00;38131.67
1725903331.416;64;40.00;38725.13
1725903331.466;64;40.00;38725.13
1725903331.515;77;40.00;36768.00
1725903331.566;38;40.00;42714.20
1725903331.616;38;40.00;42714.20
1725903331.666;38;40.00;42714.20
1725903331.717;31;40.00;43825.54
1725903331.767;29;40.00;44166.93
1725903331.818;29;40.00;44166.93
1725903331.868;29;40.00;44166.93
1725903331.918;84;40.00;35706.40
1725903331.967;84;40.00;35706.40
1725903332.018;84;40.00;35706.40
1725903332.068;84;40.00;35706.40
1725903332.118;60;40.00;39373.67
1725903332.168;55;40.00;40089.73
1725903332.218;55;40.00;40089.73
1725903332.269;55;40.00;40089.73
1725903332.325;58;40.00;39751.07
1725903332.371;58;40.00;39687.46
1725903332.423;46;40.00;41482.67
1725903332.473;46;40.00;41482.67
1725903332.522;39;40.00;42605.13
1725903332.573;49;40.00;40997.46
1725903332.623;49;40.00;40997.46
1725903332.673;49;40.00;40997.46
1725903332.724;79;40.00;36531.60
1725903332.775;67;40.00;38312.93
1725903332.824;63;40.00;38909.27
1725903332.875;63;40.00;38909.27
1725903332.924;34;40.00;43329.33
1725903332.974;45;40.00;41693.93
1725903333.024;45;40.00;41693.93
1725903333.074;45;40.00;41693.93
1725903333.124;87;40.00;35267.33
1725903333.175;81;40.00;36192.27
1725903333.226;81;40.00;36192.27
1725903333.276;81;40.00;36192.27
1725903333.328;40;40.00;42484.80
1725903333.378;40;40.00;42484.80
1725903333.428;40;40.00;42484.80
1725903333.478;75;40.00;37087.60
1725903333.528;82;40.00;36081.07
1725903333.578;82;40.00;36081.07
1725903333.628;82;40.00;36081.07
1725903333.678;82;40.00;36081.07
1725903333.728;57;40.00;39812.27
1725903333.778;85;40.00;35643.13
1725903333.828;85;40.00;35643.13
1725903333.878;85;40.00;35643.13
1725903333.928;78;40.00;36595.46
1725903333.979;64;40.00;38721.33
1725903334.028;64;40.00;38721.33
1725903334.078;64;40.00;38721.33
1725903334.128;55;40.00;40187.93
1725903334.179;45;40.00;41714.60
1725903334.229;82;40.00;35981.46
1725903334.278;82;40.00;35981.46
1725903334.328;76;40.00;36985.33
1725903334.378;91;40.00;34716.80
1725903334.428;51;40.00;40748.60
1725903334.478;51;40.00;40748.60
1725903334.528;79;40.00;36451.73
1725903334.579;46;40.00;41582.60
1725903334.628;87;40.00;35354.93
1725903334.679;87;40.00;35354.93
1725903334.729;87;40.00;35354.93
1725903334.781;37;40.00;42837.46
1725903495.384;500;16.47;34790.40
1725903495.434;500;16.47;34790.40
1725903495.484;500;16.47;34790.40
1725903495.535;500;20.01;41485.33
1725903495.586;500;20.01;41485.33
1725903495.635;500;20.01;41485.33
1725903495.685;500;18.66;38933.73
1725903495.735;500;17.64;37009.54
1725903495.785;500;17.64;37009.54
1725903495.835;500;17.64;37009.54
1725903495.885;500;20.58;42574.13
1725903495.935;500;20.58;42574.13
1725903495.985;500;20.58;42574.13
1725903496.035;500;20.58;42574.13
1725903496.086;500;16.51;34863.33
1725903496.135;500;16.51;34863.33
1725903496.185;500;16.51;34863.33
1725903496.237;500;16.51;34863.33
1725903496.286;500;19.60;40715.20
1725903496.336;500;19.44;40408.80
1725903496.387;500;19.44;40408.80
1725903496.436;500;19.44;40408.80
1725903496.487;500;19.68;40863.13
1725903496.537;500;18.39;38429.00
1725903496.588;500;18.39;38429.00
1725903496.638;500;18.39;38429.00
1725903496.688;500;19.94;41358.60
1725903496.738;500;19.63;40772.67
1725903496.788;500;19.63;40772.67
1725903496.838;500;19.63;40772.67
1725903496.888;500;19.92;41326.87
1725903496.938;500;17.06;35908.46
1725903496.989;500;16.78;35387.54
1725903497.038;500;16.78;35387.54
1725903497.088;500;19.79;41076.27
1725903497.139;500;17.77;37253.73
1725903497.188;500;17.34;36445.73
1725903497.239;500;17.34;36445.73
1725903497.290;500;17.34;36445.73
1725903497.339;500;20.02;41511.73
1725903497.389;500;17.16;36092.80
1725903497.439;500;17.16;36092.80
1725903497.490;500;17.16;36092.80
1725903497.540;500;20.34;42117.33
1725903497.589;500;20.30;42044.54
1725903497.639;500;20.30;42044.54
1725903497.689;500;20.30;42044.54
1725903497.739;500;20.23;41906.93
1725903497.789;500;17.25;36267.20
1725903497.839;500;17.25;36267.20
1725903497.889;500;17.25;36267.20
1725903497.939;500;17.03;35855.54
1725903497.990;500;16.44;34733.54
1725903498.039;500;16.44;34733.54
1725903498.089;500;16.44;34733.54
1725903498.141;500;18.64;38898.13
1725903498.190;500;18.64;38898.13
1725903498.240;500;18.64;38898.13
1725903498.290;500;20.30;42034.87
1725903498.341;500;20.30;42034.87
1725903498.390;500;20.30;42034.87
1725903498.441;500;20.30;42034.87
1725903498.491;500;19.59;40690.40
1725903498.542;500;19.88;41243.40
1725903498.592;500;19.88;41243.40
1725903498.642;500;19.88;41243.40
1725903498.691;500;18.81;39215.93
1725903498.741;500;17.34;36431.33
1725903498.792;500;17.34;36431.33
1725903498.841;500;17.34;36431.33
1725903498.892;500;19.07;39705.93
1725903498.941;500;20.18;41818.80
1725903498.992;500;20.18;41818.80
1725903499.041;500;20.15;41747.60
1725903499.091;500;20.65;42696.80
1725903499.142;500;20.65;42696.80
1725903499.191;500;20.65;42696.80
1725903499.242;500;17.13;36043.20
1725903499.292;500;20.35;42139.67
1725903499.342;500;20.35;42139.67
1725903499.392;500;20.35;42139.67
1725903499.442;500;19.84;41172.87
1725903499.492;500;20.56;42532.33
1725903499.542;500;20.56;42532.33
1725903499.592;500;20.56;42532.33
1725903499.642;500;20.83;43049.87
1725903499.693;500;20.83;43049.87
1725903499.743;500;20.83;43049.87
1725903499.793;500;20.83;43049.87
1725903499.842;500;20.43;42280.20
1725903499.892;500;18.07;37817.80
1725903499.943;500;18.07;37817.80
1725903499.992;500;18.07;37817.80
1725903500.043;500;18.40;38453.27
1725903500.093;500;17.61;36950.00
1725903500.142;500;17.61;36950.00
1725903500.193;500;19.19;39947.33
1725903500.243;500;17.38;36518.13
1725903512.568;500;16.74;35300.00
1725903512.618;500;16.57;34982.13
1725903512.668;500;16.57;34982.13
1725903512.718;500;16.69;35211.46
1725903512.920;500;16.77;35359.46
1725903512.969;500;18.79;39186.46
1725903513.019;500;18.79;39186.46
1725903513.069;500;18.79;39186.46
1725903513.120;500;18.75;39098.40
1725903513.169;500;17.35;36460.13
1725903513.219;500;17.35;36460.13
1725903513.270;500;17.35;36460.13
1725903513.321;500;21.28;43892.13
1725903513.370;500;17.73;37173.87
1725903513.421;500;17.73;37173.87
1725903513.471;500;17.73;37173.87
1725903513.521;500;17.34;36440.93
1725903513.571;500;19.96;41399.33
1725903513.621;500;19.99;41456.93
1725903513.671;500;19.99;41456.93
1725903513.721;500;19.99;41456.93
1725903513.772;500;18.82;39234.67
1725903513.822;500;19.00;39581.33
1725903513.872;500;19.00;39581.33
1725903513.922;500;20.78;42950.40
1725903513.972;500;20.43;42285.93
1725903514.023;500;20.43;42285.93
1725903514.073;500;20.43;42285.93
1725903514.123;500;20.43;42285.93
1725903514.173;500;20.50;42423.33
1725903514.223;500;19.92;41330.54
1725903514.273;500;19.92;41330.54
1725903514.323;500;19.92;41330.54
1725903514.374;500;18.73;39069.93
1725903514.424;500;18.57;38766.60
1725903514.474;500;18.57;38766.60
1725903514.524;500;19.68;40860.67
1725903514.573;500;20.46;42346.27
1725903514.624;500;20.46;42346.27
1725903514.673;500;20.46;42346.27
1725903514.724;500;20.97;43307.73
1725903514.773;500;20.92;43211.46
1725903514.824;500;20.92;43211.46
1725903514.873;500;20.92;43211.46
1725903514.923;500;20.53;42483.33
1725903514.974;500;20.53;42476.07
1725903515.024;500;20.53;42476.07
1725903515.075;500;20.53;42476.07
1725903515.125;500;19.93;41348.13
1725903515.175;500;19.32;40194.40
1725903515.225;500;19.82;41135.20
1725903515.276;500;19.82;41135.20
1725903515.327;500;19.82;41135.20
1725903515.376;500;17.44;36627.07
1725903515.427;500;16.89;35593.46
1725903515.477;500;16.89;35593.46
1725903515.526;500;16.89;35593.46
1725903515.578;500;21.04;43447.60
1725903515.628;500;21.04;43447.60
1725903515.677;500;21.04;43447.60
1725903515.728;500;21.04;43447.60
1725903515.778;500;20.39;42205.60
1725903515.827;500;17.43;36615.20
1725903515.878;500;17.43;36615.20
1725903515.928;500;17.39;36531.46
1725903515.978;500;20.23;41909.00
1725903516.028;500;20.23;41909.00
1725903516.078;500;20.23;41909.00
1725903516.128;500;20.47;42354.13
1725903516.178;500;20.30;42032.46
1725903516.228;500;20.30;42032.46
1725903516.278;500;20.37;42172.73
1725903516.328;500;19.78;41062.60
1725903516.378;500;19.78;41062.60
1725903516.428;500;19.78;41062.60
1725903516.478;500;18.86;39323.40
1725903516.528;500;17.46;36670.13
1725903516.578;500;18.48;38598.13
1725903516.628;500;18.48;38598.13
1725903516.678;500;20.74;42865.40
1725903516.728;500;20.25;41944.33
1725903516.778;500;20.25;41944.33
1725903516.828;500;20.25;41944.33
1725903516.878;500;20.68;42761.67
1725903516.928;500;19.76;41011.27
1725903516.978;500;19.76;41011.27
1725903517.029;500;19.76;41011.27
1725903517.078;500;18.16;37997.00
1725903517.128;500;19.98;41430.73
1725903529.009;500;17.44;36620.00
1725903529.059;500;17.44;36620.00
1725903529.108;500;17.44;36620.00
1725903529.158;500;17.11;36002.93
1725903529.208;500;20.10;41656.60
1725903529.259;500;20.10;41656.60
1725903529.308;500;17.56;36856.73
1725903529.359;500;18.55;38733.27
1725903529.408;500;18.55;38733.27
1725903529.458;500;18.55;38733.27
1725903529.508;500;18.24;38147.00
1725903529.559;500;18.37;38389.67
1725903529.609;500;18.37;38389.67
1725903529.659;500;18.37;38389.67
1725903529.708;500;20.35;42134.54
1725903529.759;500;20.35;42134.54
1725903529.808;500;20.35;42134.54
1725903529.859;500;18.77;39154.07
1725903529.909;500;19.12;39813.27
1725903529.959;500;19.12;39813.27
1725903530.009;500;19.12;39813.27
1725903530.059;500;20.35;42140.80
1725903530.109;500;19.80;41089.33
1725903530.159;500;19.80;41089.33
1725903530.209;500;19.80;41089.33
1725903530.259;500;20.47;42356.80
1725903530.309;500;20.24;41922.00
1725903530.359;500;20.24;41922.00
1725903530.459;500;17.27;36309.07
1725903530.509;500;17.27;36309.07
1725903530.559;500;17.27;36309.07
1725903530.659;500;18.65;38926.40
1725903530.709;500;18.65;38926.40
1725903530.759;500;18.65;38926.40
1725903530.809;500;18.59;38813.27
1725903530.859;500;20.42;42264.13
1725903530.909;500;18.26;38185.40
1725903530.959;500;18.26;38185.40
1725903531.009;500;17.70;37128.73
1725903531.059;500;17.65;37028.93
1725903531.109;500;17.48;36710.93
1725903531.159;500;17.48;36710.93
1725903531.209;500;17.48;36710.93
1725903531.259;500;16.49;34832.27
1725903531.309;500;16.99;35785.54
1725903531.359;500;16.99;35785.54
1725903531.409;500;16.99;35785.54
1725903531.459;500;18.25;38168.20
1725903531.509;500;17.81;37324.73
1725903531.559;500;17.81;37324.73
1725903531.609;500;17.81;37324.73
1725903531.659;500;17.81;37324.73
1725903531.709;500;20.27;41992.46
1725903531.759;500;20.27;41992.46
1725903531.809;500;20.27;41992.46
1725903531.859;500;20.27;41992.46
1725903531.909;500;20.45;42326.93
1725903531.959;500;20.45;42326.93
1725903532.009;500;20.45;42326.93
1725903532.060;500;19.43;40392.60
1725903532.110;500;18.13;37934.67
1725903532.160;500;18.13;37934.67
1725903532.210;500;18.13;37934.67
1725903532.260;500;18.30;38254.80
1725903532.311;500;20.06;41583.27
1725903532.361;500;20.06;41583.27
1725903532.412;500;20.22;41887.93
1725903532.462;500;20.14;41735.46
1725903532.511;500;19.22;40004.27
1725903532.562;500;19.22;40004.27
1725903532.612;500;19.22;40004.27
1725903532.662;500;20.48;42380.27
1725903532.713;500;20.45;42328.67
1725903532.763;500;20.45;42328.67
1725903532.813;500;20.45;42328.67
1725903532.863;500;18.77;39147.20
1725903532.914;500;17.63;36981.93
1725903532.964;500;17.63;36981.93
1725903533.013;500;17.63;36981.93
1725903533.064;500;20.22;41892.27
1725903533.114;500;19.98;41431.54
1725903533.164;500;19.98;41431.54
1725903533.214;500;19.98;41431.54
1725903533.265;500;19.68;40862.73
1725903533.314;500;18.96;39502.93
1725903533.364;500;18.96;39502.93
1725903533.414;500;18.96;39502.93
1725903533.464;500;18.96;39500.73
1725903533.514;500;16.82;35454.40
1725903533.564;500;16.82;35454.40
1725903533.614;500;20.38;42189.73
1725903533.664;500;19.38;40299.27
1725903533.714;500;19.38;40299.27
1725903533.764;500;19.38;40299.27
1725903533.814;500;17.20;36182.46
1725903533.865;500;20.66;42718.13
1725903840.765;86;30.00;35468.67
1725903840.815;85;30.00;35636.27
1725903840.864;85;30.00;35636.27
1725903840.915;85;30.00;35636.27
1725903840.965;56;30.00;39963.87
1725903841.015;63;30.00;39010.00
1725903841.065;63;30.00;39010.00
1725903841.115;63;30.00;39010.00
1725903841.164;59;30.00;39556.93
1725903841.215;59;30.00;39556.93
1725903841.265;59;30.00;39556.93
1725903841.315;44;30.00;41859.73
1725903841.365;72;30.00;37552.67
1725903841.415;72;30.00;37552.67
1725903841.467;72;30.00;37552.67
1725903841.517;36;30.00;42979.73
1725903841.567;65;30.00;38647.60
1725903841.617;65;30.00;38647.60
1725903841.666;65;30.00;38647.60
1725903841.717;49;30.00;40998.54
1725903841.768;91;30.00;34657.46
1725903841.818;91;30.00;34657.46
1725903841.868;91;30.00;34657.46
1725903841.918;57;30.00;39919.60
1725903841.968;54;30.00;40334.13
1725903842.018;54;30.00;40334.13
1725903842.069;54;30.00;40334.13
1725903842.118;58;30.00;39651.40
1725903842.169;54;30.00;40377.07
1725903842.219;54;30.00;40377.07
1725903842.268;54;30.00;40377.07
1725903842.319;80;30.00;36331.07
1725903842.369;44;30.00;41853.13
1725903842.419;44;30.00;41853.13
1725903842.470;44;30.00;41853.13
1725903842.519;65;30.00;38648.46
1725903842.570;84;30.00;35788.87
1725903842.620;84;30.00;35788.87
1725903842.670;84;30.00;35788.87
1725903842.719;32;30.00;43608.46
1725903842.770;31;30.00;43807.27
1725903842.819;31;30.00;43807.27
1725903842.870;52;30.00;40602.93
1725903842.920;85;30.00;35516.54
1725903842.970;85;30.00;35516.54
1725903843.020;85;30.00;35516.54
1725903843.070;86;30.00;35446.00
1725903843.119;86;30.00;35447.60
1725903843.169;86;30.00;35447.60
1725903843.219;86;30.00;35447.60
1725903843.269;87;30.00;35295.20
1725903843.320;77;30.00;36781.87
1725903843.370;77;30.00;36781.87
1725903843.420;77;30.00;36781.87
1725903843.471;85;30.00;35653.20
1725903843.520;75;30.00;37069.73
1725903843.571;67;30.00;38400.20
1725903843.620;67;30.00;38400.20
1725903843.671;77;30.00;36877.87
1725903843.720;82;30.00;35996.93
1725903843.771;81;30.00;36234.54
1725903843.820;81;30.00;36234.54
1725903843.871;81;30.00;36234.54
1725903843.920;81;30.00;36270.13
1725903843.970;46;30.00;41476.67
1725903844.021;46;30.00;41476.67
1725903844.072;46;30.00;41476.67
1725903844.121;79;30.00;36550.27
1725903844.171;79;30.00;36438.93
1725903844.221;79;30.00;36438.93
1725903844.272;89;30.00;34991.80
1725903844.322;88;30.00;35192.93
1725903844.472;89;30.00;34902.67
1725903844.526;78;30.00;36665.93
1725903844.572;80;30.00;36324.80
1725903844.622;80;30.00;36324.80
1725903844.672;80;30.00;36324.80
1725903844.722;80;30.00;36363.60
1725903844.772;86;30.00;35448.27
1725903844.822;86;30.00;35448.27
1725903844.873;86;30.00;35448.27
1725903844.923;64;30.00;38810.40
1725903844.973;55;30.00;40209.13
1725903845.024;55;30.00;40209.13
1725903845.074;55;30.00;40209.13
1725903845.123;64;30.00;38723.93
1725903845.174;64;30.00;38723.93
1725903845.224;64;30.00;38723.93
1725903845.274;64;30.00;38723.93
1725903845.325;42;30.00;42119.73
1725903845.375;53;30.00;40484.80
1725903845.424;53;30.00;40484.80
1725903845.476;53;30.00;40484.80
1725903845.525;69;30.00;38046.54
1725903845.576;66;30.00;38404.13
1725903845.627;66;30.00;38404.13
1725903845.677;81;30.00;36206.67
1725903845.727;54;30.00;40353.73
1725903857.989;78;30.00;36664.40
1725903858.039;90;30.00;34850.80
1725903858.088;90;30.00;34850.80
1725903858.138;90;30.00;34850.80
1725903858.189;84;30.00;35722.07
1725903858.239;81;30.00;36215.67
1725903858.289;81;30.00;36215.67
1725903858.340;81;30.00;36215.67
1725903858.390;48;30.00;41286.73
1725903858.441;74;30.00;37266.20
1725903858.491;74;30.00;37266.20
1725903858.542;74;30.00;37266.20
1725903858.592;47;30.00;41382.67
1725903858.642;39;30.00;42516.80
1725903858.691;39;30.00;42516.80
1725903858.743;39;30.00;42516.80
1725903858.793;55;30.00;40140.60
1725903858.844;70;30.00;37859.80
1725903858.893;70;30.00;37859.80
1725903858.944;70;30.00;37859.80
1725903858.993;61;30.00;39258.27
1725903859.043;45;30.00;41727.60
1725903859.093;45;30.00;41727.60
1725903859.144;45;30.00;41727.60
1725903859.193;86;30.00;35430.40
1725903859.244;73;30.00;37407.46
1725903859.294;73;30.00;37407.46
1725903859.344;73;30.00;37407.46
1725903859.394;68;30.00;38193.33
1725903859.445;78;30.00;36610.54
1725903859.495;77;30.00;36789.07
1725903859.545;77;30.00;36789.07
1725903859.595;77;30.00;36789.07
1725903859.646;56;30.00;40075.93
1725903859.696;80;30.00;36409.73
1725903859.746;80;30.00;36409.73
1725903859.797;80;30.00;36409.73
1725903859.846;76;30.00;37031.93
1725903859.896;81;30.00;36128.87
1725903859.947;73;30.00;37377.07
1725903859.997;73;30.00;37377.07
1725903860.048;56;30.00;39988.00
1725903860.098;74;30.00;37200.87
1725903860.148;88;30.00;35203.60
1725903860.199;88;30.00;35203.60
1725903860.248;69;30.00;37994.40
1725903860.298;67;30.00;38312.27
1725903860.348;67;30.00;38379.67
1725903860.398;67;30.00;38379.67
1725903860.449;48;30.00;41266.00
1725903860.549;83;30.00;35918.13
1725903860.598;83;30.00;35918.13
1725903860.648;85;30.00;35587.07
1725903860.699;85;30.00;35518.80
1725903860.749;85;30.00;35518.80
1725903860.799;85;30.00;35518.80
1725903860.849;52;30.00;40562.80
1725903860.899;63;30.00;38954.00
1725903860.949;82;30.00;36071.60
1725903860.999;82;30.00;36071.60
1725903861.049;82;30.00;36071.60
1725903861.099;81;30.00;36220.93
1725903861.149;71;30.00;37703.20
1725903861.199;71;30.00;37703.20
1725903861.249;71;30.00;37703.20
1725903861.349;86;30.00;35470.40
1725903861.399;86;30.00;35470.40
1725903861.449;86;30.00;35470.40
1725903861.499;80;30.00;36362.27
1725903861.550;37;30.00;42938.87
1725903861.601;37;30.00;42938.87
1725903861.650;37;30.00;42938.87
1725903861.700;87;30.00;35342.13
1725903861.851;87;30.00;35260.54
1725903861.902;85;30.00;35534.80
1725903861.952;89;30.00;34902.13
1725903862.003;89;30.00;34902.13
1725903862.052;63;30.00;38944.67
1725903862.102;66;30.00;38484.07
1725903862.152;68;30.00;38190.93
1725903862.203;68;30.00;38190.93
1725903862.253;68;30.00;38190.93
1725903862.303;88;30.00;35186.93
1725903862.353;63;30.00;38960.46
1725903862.402;63;30.00;38960.46
1725903862.453;63;30.00;38960.46
1725903862.502;77;30.00;36761.87
1725903862.553;51;30.00;40817.46
1725903862.604;51;30.00;40817.46
1725903862.654;51;30.00;40817.46
1725903862.703;53;30.00;40519.07
1725903862.753;42;30.00;42177.54
1725903874.778;85;30.00;35627.60
1725903874.828;85;30.00;35627.60
1725903874.878;85;30.00;35627.60
1725903874.977;63;30.00;38987.33
1725903875.028;63;30.00;38987.33
1725903875.129;80;30.00;36309.46
1725903875.178;80;30.00;36309.46
1725903875.229;80;30.00;36309.46
1725903875.279;45;30.00;41669.40
1725903875.330;45;30.00;41669.40
1725903875.380;45;30.00;41669.40
1725903875.430;77;30.00;36789.20
1725903875.480;86;30.00;35485.20
1725903875.530;86;30.00;35485.20
1725903875.581;62;30.00;39087.73
1725903875.630;75;30.00;37100.46
1725903875.680;75;30.00;37100.46
1725903875.730;75;30.00;37100.46
1725903875.781;65;30.00;38679.13
1725903875.830;49;30.00;41066.60
1725903875.881;77;30.00;36763.20
1725903875.931;77;30.00;36763.20
1725903875.981;60;30.00;39414.54
1725903876.031;55;30.00;40140.27
1725903876.081;40;30.00;42418.07
1725903876.132;40;30.00;42418.07
1725903876.181;40;30.00;42418.07
1725903876.232;71;30.00;37744.87
1725903876.433;61;30.00;39284.67
1725903876.482;90;30.00;34894.27
1725903876.532;90;30.00;34894.27
1725903876.583;82;30.00;36036.27
1725903876.633;61;30.00;39218.46
1725903876.683;87;30.00;35231.60
1725903876.734;87;30.00;35231.60
1725903876.783;74;30.00;37244.07
1725903876.833;57;30.00;39788.40
1725903876.883;59;30.00;39544.07
1725903876.933;59;30.00;39544.07
1725903876.983;45;30.00;41625.87
1725903877.033;48;30.00;41172.46
1725903877.084;89;30.00;34965.60
1725903877.134;89;30.00;34965.60
1725903877.184;69;30.00;38032.46
1725903877.234;83;30.00;35948.87
1725903877.283;83;30.00;35923.93
1725903877.334;83;30.00;35923.93
1725903877.384;41;30.00;42252.33
1725903877.433;49;30.00;41046.13
1725903877.484;49;30.00;41046.13
1725903877.534;49;30.00;41046.13
1725903877.584;70;30.00;37921.67
1725903877.634;78;30.00;36695.20
1725903877.684;78;30.00;36695.20
1725903877.734;78;30.00;36695.20
1725903877.784;60;30.00;39463.13
1725903877.834;68;30.00;38109.33
1725903877.884;54;30.00;40341.80
1725903877.934;54;30.00;40341.80
1725903877.984;62;30.00;39136.33
1725903878.034;80;30.00;36418.46
1725903878.085;88;30.00;35082.93
1725903878.135;88;30.00;35082.93
1725903878.185;88;30.00;35082.93
1725903878.235;45;30.00;41724.07
1725903878.285;68;30.00;38206.73
1725903878.334;68;30.00;38206.73
1725903878.384;68;30.00;38206.73
1725903878.435;59;30.00;39495.87
1725903878.485;37;30.00;42956.93
1725903878.535;37;30.00;42956.93
1725903878.585;37;30.00;42956.93
1725903878.635;80;30.00;36382.07
1725903878.686;60;30.00;39318.80
1725903878.736;60;30.00;39318.80
1725903878.785;60;30.00;39318.80
1725903878.837;84;30.00;35810.00
1725903878.887;53;30.00;40492.67
1725903878.937;53;30.00;40492.67
1725903878.987;53;30.00;40492.67
1725903879.037;50;30.00;40894.00
1725903879.086;63;30.00;39002.93
1725903879.137;63;30.00;39002.93
1725903879.187;63;30.00;39002.93
1725903879.237;55;30.00;40089.93
1725903879.288;89;30.00;34908.13
1725903879.338;89;30.00;34908.13
1725903879.388;89;30.00;34908.13
1725903879.438;47;30.00;41301.93
1725903879.489;82;30.00;35983.07
1725903879.538;82;30.00;35983.07
1725903879.689;50;30.00;40977.80
1725903879.739;50;30.00;40977.80
1725903879.789;84;30.00;35719.93
1725903879.839;81;30.00;36173.60
1725904192.268;50;16.60;35038.93
1725904192.318;50;16.60;35038.93
1725904192.368;50;16.60;35038.93
1725904192.468;50;17.06;35910.00
1725904192.518;50;17.06;35910.00
1725904192.568;50;17.06;35910.00
1725904192.618;50;16.92;35651.46
1725904192.668;50;16.92;35651.46
1725904192.718;50;16.92;35651.46
1725904192.768;50;17.16;36100.40
1725904192.818;50;16.92;35653.67
1725904192.868;50;16.92;35653.67
1725904192.918;50;16.92;35653.67
1725904192.968;50;16.93;35658.54
1725904193.019;50;19.07;39712.27
1725904193.070;50;19.07;39712.27
1725904193.119;50;19.07;39712.27
1725904193.169;50;17.86;37432.00
1725904193.219;50;19.46;40445.27
1725904193.270;50;19.46;40445.27
1725904193.321;50;19.46;40445.27
1725904193.370;50;19.48;40492.00
1725904193.421;50;20.27;41979.60
1725904193.471;50;20.27;41979.60
1725904193.520;50;20.27;41979.60
1725904193.571;50;19.85;41179.54
1725904193.621;50;20.02;41517.93
1725904193.671;50;20.16;41766.00
1725904193.721;50;20.16;41766.00
1725904193.771;50;20.16;41766.00
1725904193.821;50;17.67;37067.27
1725904193.871;50;17.13;36046.46
1725904193.921;50;17.13;36046.46
1725904193.971;50;17.13;36046.46
1725904194.022;50;20.72;42834.67
1725904194.072;50;20.05;41558.20
1725904194.121;50;20.05;41558.20
1725904194.171;50;20.05;41558.20
1725904194.221;50;17.04;35879.00
1725904194.271;50;18.34;38339.13
1725904194.322;50;18.34;38339.13
1725904194.371;50;18.34;38339.13
1725904194.421;50;20.14;41741.80
1725904194.471;50;19.14;39838.20
1725904194.521;50;19.14;39838.20
1725904194.572;50;19.57;40651.87
1725904194.621;50;17.96;37603.80
1725904194.671;50;17.43;36607.87
1725904194.721;50;17.43;36607.87
1725904194.772;50;17.43;36607.87
1725904194.822;50;18.75;39113.20
1725904195.022;50;16.62;35078.93
1725904195.072;50;16.48;34816.40
1725904195.122;50;16.48;34816.40
1725904195.172;50;16.48;34816.40
1725904195.222;50;17.85;37402.07
1725904195.273;50;17.04;35864.00
1725904195.323;50;17.04;35864.00
1725904195.373;50;16.98;35764.00
1725904195.574;50;17.39;36532.07
1725904195.824;50;17.40;36553.00
1725904195.874;50;16.79;35390.54
1725904195.924;50;16.79;35390.54
1725904195.974;50;16.79;35390.54
1725904196.024;50;20.08;41618.54
1725904196.074;50;17.43;36614.40
1725904196.124;50;17.43;36614.40
1725904196.174;50;17.43;36614.40
1725904196.224;50;18.90;39388.27
1725904196.274;50;18.94;39468.73
1725904196.324;50;18.94;39468.73
1725904196.375;50;18.94;39468.73
1725904196.425;50;19.94;41364.93
1725904196.474;50;17.37;36491.20
1725904196.525;50;17.37;36491.20
1725904196.575;50;17.37;36491.20
1725904196.624;50;17.51;36761.27
1725904196.674;50;19.36;40254.20
1725904196.724;50;19.36;40254.20
1725904196.774;50;19.36;40254.20
1725904196.824;50;20.51;42432.40
1725904196.874;50;18.56;38742.46
1725904196.926;50;18.56;38742.46
1725904196.975;50;17.23;36223.80
1725904197.025;50;16.63;35093.40
1725904197.076;50;19.43;40387.54
1725904197.125;50;19.43;40387.54
1725904197.175;50;19.20;39957.13
1725904197.226;50;17.35;36455.93
1725904209.537;50;16.61;35063.07
1725904209.737;50;18.32;38301.07
1725904209.937;50;17.20;36175.33
1725904210.538;50;16.72;35271.40
1725904210.588;50;16.72;35271.40
1725904210.638;50;16.72;35271.40
1725904210.738;50;18.65;38921.93
1725904210.787;50;18.65;38921.93
1725904210.838;50;18.65;38921.93
1725904210.888;50;18.91;39407.93
1725904210.938;50;17.60;36935.87
1725904210.988;50;16.77;35363.33
1725904211.037;50;16.77;35363.33
1725904211.093;50;16.77;35363.33
1725904211.142;50;16.70;35229.87
1725904211.192;50;17.29;36344.13
1725904211.242;50;17.29;36344.13
1725904211.292;50;17.19;36163.60
1725904211.343;50;18.34;38323.54
1725904211.393;50;18.34;38323.54
1725904211.443;50;18.34;38323.54
1725904211.544;50;17.06;35903.07
1725904211.594;50;17.06;35903.07
1725904211.644;50;17.06;35903.07
1725904211.694;50;16.77;35354.87
1725904211.744;50;16.45;34758.00
1725904211.794;50;16.45;34758.00
1725904211.843;50;16.45;34758.00
1725904211.894;50;16.89;35588.93
1725904211.943;50;16.84;35497.13
1725904211.994;50;16.84;35497.13
1725904212.043;50;16.84;35497.13
1725904212.093;50;16.42;34696.67
1725904212.145;50;17.92;37544.07
1725904212.195;50;18.28;38216.60
1725904212.245;50;18.28;38216.60
1725904212.294;50;18.28;38216.60
1725904212.345;50;16.87;35547.33
1725904212.395;50;17.32;36400.40
1725904212.446;50;17.32;36400.40
1725904212.495;50;17.32;36400.40
1725904212.545;50;17.57;36880.87
1725904212.595;50;17.32;36394.73
1725904212.645;50;17.32;36394.73
1725904212.695;50;17.32;36394.73
1725904212.745;50;16.78;35384.80
1725904212.795;50;16.78;35384.80
1725904212.846;50;16.78;35384.80
1725904212.897;50;16.48;34817.33
1725904212.947;50;17.93;37558.00
1725904212.998;50;17.93;37558.00
1725904213.048;50;17.93;37558.00
1725904213.097;50;16.55;34950.67
1725904213.148;50;17.89;37484.80
1725904213.199;50;17.89;37484.80
1725904213.248;50;17.89;37484.80
1725904213.298;50;18.67;38949.80
1725904213.348;50;17.07;35935.33
1725904213.399;50;17.74;37200.80
1725904213.449;50;17.74;37200.80
1725904213.499;50;18.14;37943.80
1725904213.550;50;16.84;35496.00
1725904213.600;50;17.15;36070.80
1725904213.650;50;17.15;36070.80
1725904213.700;50;16.62;35068.80
1725904213.750;50;16.72;35260.40
1725904213.800;50;16.72;35260.40
1725904213.849;50;16.72;35260.40
1725904213.899;50;16.95;35700.13
1725904213.951;50;18.47;38575.60
1725904214.001;50;18.47;38575.60
1725904214.051;50;18.47;38575.60
1725904214.101;50;17.44;36626.54
1725904214.200;50;17.06;35910.54
1725904214.252;50;17.06;35910.54
1725904214.302;50;17.06;35910.54
1725904214.352;50;18.32;38284.93
1725904214.402;50;18.38;38416.33
1725904214.451;50;18.38;38416.33
1725904214.501;50;18.38;38416.33
1725904226.934;50;16.58;35000.80
1725904227.134;50;16.66;35157.46
1725904227.184;50;16.66;35157.46
1725904227.234;50;16.66;35157.46
1725904227.284;50;16.66;35158.27
1725904227.334;50;17.62;36968.40
1725904227.383;50;17.62;36968.40
1725904227.434;50;17.62;36968.40
1725904227.485;50;16.99;35783.73
1725904227.534;50;16.56;34959.20
1725904227.584;50;17.10;35979.87
1725904227.634;50;17.10;35979.87
1725904227.684;50;17.10;35979.87
1725904227.734;50;16.61;35056.27
1725904227.784;50;18.94;39465.60
1725904227.835;50;18.94;39465.60
1725904227.885;50;18.94;39465.60
1725904227.935;50;18.95;39484.00
1725904227.984;50;20.05;41571.40
1725904228.034;50;20.05;41571.40
1725904228.085;50;20.05;41571.40
1725904228.135;50;19.64;40784.67
1725904228.185;50;18.20;38066.00
1725904228.235;50;18.20;38066.00
1725904228.285;50;18.20;38066.00
1725904228.336;50;18.22;38098.40
1725904228.385;50;19.31;40162.40
1725904228.435;50;19.97;41416.33
1725904228.485;50;19.97;41416.33
1725904228.536;50;19.97;41416.33
1725904228.585;50;18.67;38950.40
1725904228.636;50;19.62;40762.13
1725904228.685;50;19.62;40762.13
1725904228.735;50;19.62;40762.13
1725904228.786;50;18.05;37776.80
1725904228.836;50;18.61;38839.27
1725904228.885;50;18.61;38839.27
1725904228.936;50;18.61;38839.27
1725904228.986;50;17.07;35935.33
1725904229.036;50;19.50;40520.27
1725904229.086;50;19.50;40520.27
1725904229.136;50;19.50;40520.27
1725904229.186;50;20.18;41806.00
1725904229.235;50;20.08;41615.40
1725904229.286;50;20.08;41615.40
1725904229.336;50;20.08;41615.40
1725904229.386;50;19.30;40143.00
1725904229.436;50;18.66;38940.46
1725904229.486;50;18.66;38940.46
1725904229.537;50;18.66;38940.46
1725904229.587;50;16.80;35412.13
1725904229.838;50;16.40;34657.00
1725904229.888;50;16.40;34657.00
1725904229.938;50;16.40;34657.00
1725904230.140;50;20.22;41880.54
1725904230.189;50;16.49;34833.07
1725904230.239;50;16.49;34833.07
1725904230.291;50;16.49;34833.07
1725904230.341;50;18.43;38496.27
1725904230.391;50;19.09;39743.73
1725904230.441;50;19.09;39743.73
1725904230.492;50;18.17;38017.87
1725904230.542;50;18.73;39063.40
1725904230.592;50;17.90;37507.46
1725904230.642;50;17.90;37507.46
1725904230.693;50;17.90;37507.46
1725904230.743;50;18.57;38763.07
1725904230.793;50;18.32;38293.27
1725904230.844;50;18.32;38293.27
1725904230.894;50;18.32;38293.27
1725904230.943;50;18.39;38419.46
1725904230.993;50;19.37;40279.46
1725904231.043;50;19.37;40279.46
1725904231.094;50;19.37;40279.46
1725904231.144;50;18.80;39195.73
1725904231.195;50;17.74;37188.67
1725904231.245;50;17.74;37188.67
1725904231.294;50;17.74;37188.67
1725904231.345;50;17.08;35946.93
1725904231.395;50;20.07;41614.33
1725904231.445;50;20.07;41614.33
1725904231.497;50;20.07;41614.33
1725904231.547;50;17.32;36403.54
1725904231.603;50;17.85;37406.93
