UnixTimestamp;Microseconds;MilliAmpere;BaseValue
1737972638.629;76;30.00;37771.73
1737972638.676;76;30.00;37771.73
1737972638.726;76;30.00;37771.73
1737972638.776;73;30.00;35532.67
1737972638.828;73;30.00;35590.67
1737972638.878;73;30.00;35590.67
1737972638.927;73;30.00;35590.67
1737972638.978;73;30.00;35958.40
1737972639.028;77;30.00;38801.93
1737972639.078;77;30.00;38801.93
1737972639.128;77;30.00;38801.93
1737972639.178;86;30.00;44853.60
1737972639.228;89;30.00;46281.13
1737972639.278;89;30.00;46281.13
1737972639.328;89;30.00;46281.13
1737972639.378;86;30.00;44212.00
1737972639.428;86;30.00;44651.60
1737972639.478;86;30.00;44651.60
1737972639.528;86;30.00;44651.60
1737972639.577;76;30.00;37729.33
1737972639.628;87;30.00;45317.87
1737972639.678;87;30.00;45317.87
1737972639.727;87;30.00;45317.87
1737972639.777;80;30.00;40508.54
1737972639.827;80;30.00;40508.54
1737972639.877;80;30.00;40508.54
1737972639.928;78;30.00;38837.07
1737972639.977;83;30.00;42694.80
1737972640.027;83;30.00;42694.80
1737972640.077;83;30.00;42694.80
1737972640.127;77;30.00;38549.33
1737972640.177;84;30.00;42970.33
1737972640.228;84;30.00;42970.33
1737972640.278;84;30.00;43384.13
1737972640.328;86;30.00;44462.80
1737972640.378;72;30.00;35062.60
1737972640.428;72;30.00;35062.60
1737972640.478;72;30.00;35062.60
1737972640.528;80;30.00;40812.60
1737972640.578;81;30.00;41479.00
1737972640.628;81;30.00;41479.00
1737972640.677;81;30.00;41479.00
1737972640.729;76;30.00;37759.87
1737972640.778;86;30.00;44507.73
1737972640.828;86;30.00;44507.73
1737972640.878;85;30.00;43624.60
1737972640.928;91;30.00;47873.73
1737972640.978;82;30.00;42022.33
1737972641.028;82;30.00;42022.33
1737972641.078;82;30.00;42022.33
1737972641.179;85;30.00;43707.93
1737972641.228;85;30.00;43707.93
1737972641.278;84;30.00;43185.54
1737972641.328;86;30.00;44204.07
1737972641.378;77;30.00;38590.93
1737972641.428;77;30.00;38590.93
1737972641.478;76;30.00;37725.20
1737972641.529;79;30.00;39851.20
1737972641.578;79;30.00;39851.20
1737972641.628;79;30.00;39851.20
1737972641.679;83;30.00;42789.87
1737972641.728;83;30.00;42651.73
1737972641.778;83;30.00;42651.73
1737972641.828;83;30.00;42651.73
1737972641.878;86;30.00;44702.07
1737972641.928;72;30.00;35362.67
1737972641.979;72;30.00;35362.67
1737972642.028;72;30.00;35362.67
1737972642.079;83;30.00;42604.46
1737972642.129;87;30.00;45067.20
1737972642.178;87;30.00;45301.60
1737972642.229;87;30.00;45301.60
1737972642.281;86;30.00;44643.67
1737972642.330;89;30.00;46559.40
1737972642.381;74;30.00;36633.60
1737972642.430;74;30.00;36633.60
1737972642.480;75;30.00;37350.54
1737972642.531;73;30.00;35619.46
1737972642.580;76;30.00;37985.60
1737972642.631;76;30.00;37985.60
1737972642.681;76;30.00;37985.60
1737972642.731;86;30.00;44770.87
1737972642.780;84;30.00;43321.73
1737972642.832;84;30.00;43321.73
1737972642.881;82;30.00;41860.73
1737972642.932;86;30.00;44240.46
1737972642.982;74;30.00;36166.93
1737972643.032;74;30.00;36166.93
1737972643.082;75;30.00;36968.27
1737972643.132;76;30.00;38016.00
1737972643.181;73;30.00;35505.87
1737972643.232;73;30.00;35505.87
1737972643.282;82;30.00;41588.07
1737972643.334;85;30.00;43909.40
1737972654.567;81;30.00;40837.40
1737972654.616;75;30.00;37055.73
1737972654.667;75;30.00;37055.73
1737972654.717;76;30.00;37779.73
1737972654.767;82;30.00;41727.00
1737972654.818;82;30.00;41727.00
1737972654.868;82;30.00;41727.00
1737972654.917;84;30.00;43471.13
1737972654.968;83;30.00;42292.87
1737972655.018;83;30.00;42292.87
1737972655.067;81;30.00;40848.54
1737972655.118;74;30.00;36601.07
1737972655.168;75;30.00;37272.67
1737972655.219;75;30.00;37272.67
1737972655.269;82;30.00;42079.60
1737972655.318;77;30.00;38657.60
1737972655.369;77;30.00;38657.60
1737972655.418;77;30.00;38657.60
1737972655.469;85;30.00;44188.33
1737972655.520;78;30.00;39157.33
1737972655.569;78;30.00;39157.33
1737972655.620;78;30.00;39031.73
1737972655.670;76;30.00;37941.73
1737972655.720;76;30.00;37941.73
1737972655.770;76;30.00;37941.73
1737972655.821;81;30.00;41217.60
1737972655.870;85;30.00;43935.46
1737972655.920;85;30.00;43935.46
1737972655.970;85;30.00;43574.67
1737972656.020;88;30.00;46007.27
1737972656.070;88;30.00;46007.27
1737972656.121;88;30.00;46007.27
1737972656.177;73;30.00;35567.93
1737972656.221;73;30.00;35567.93
1737972656.271;73;30.00;35567.93
1737972656.322;85;30.00;44159.07
1737972656.371;79;30.00;40136.13
1737972656.422;79;30.00;40136.13
1737972656.471;79;30.00;40136.13
1737972656.522;82;30.00;41688.40
1737972656.571;78;30.00;39412.93
1737972656.622;78;30.00;39412.93
1737972656.672;75;30.00;37395.07
1737972656.722;77;30.00;38314.87
1737972656.771;77;30.00;38314.87
1737972656.822;75;30.00;37181.80
1737972656.872;90;30.00;47247.60
1737972656.922;90;30.00;47247.60
1737972656.972;90;30.00;47247.60
1737972657.022;75;30.00;37152.00
1737972657.072;79;30.00;40034.60
1737972657.122;79;30.00;40034.60
1737972657.172;79;30.00;40034.60
1737972657.222;81;30.00;40956.93
1737972657.272;77;30.00;38281.07
1737972657.323;77;30.00;38281.07
1737972657.372;80;30.00;40446.27
1737972657.423;84;30.00;42987.00
1737972657.473;84;30.00;42987.00
1737972657.523;84;30.00;42987.00
1737972657.574;82;30.00;41943.20
1737972657.624;84;30.00;43380.27
1737972657.674;84;30.00;43380.27
1737972657.724;84;30.00;43380.27
1737972657.774;84;30.00;42852.54
1737972657.825;84;30.00;42852.54
1737972657.875;84;30.00;42852.54
1737972657.926;82;30.00;41800.54
1737972657.976;77;30.00;38326.67
1737972658.026;77;30.00;38326.67
1737972658.076;77;30.00;38326.67
1737972658.126;78;30.00;39259.07
1737972658.176;79;30.00;39604.87
1737972658.226;79;30.00;39604.87
1737972658.276;79;30.00;39604.87
1737972658.326;79;30.00;39604.87
1737972658.376;81;30.00;41306.20
1737972658.426;81;30.00;41306.20
1737972658.476;81;30.00;41306.20
1737972658.526;87;30.00;45054.33
1737972658.576;84;30.00;42943.33
1737972658.627;84;30.00;42943.33
1737972658.676;84;30.00;42943.33
1737972658.726;84;30.00;42943.33
1737972658.826;73;30.00;35925.54
1737972658.876;73;30.00;35925.54
1737972658.926;85;30.00;44051.33
1737972670.195;75;30.00;37187.73
1737972670.246;75;30.00;37187.73
1737972670.296;75;30.00;37187.73
1737972670.346;78;30.00;39307.20
1737972670.396;84;30.00;43514.33
1737972670.446;84;30.00;43514.33
1737972670.496;84;30.00;43514.33
1737972670.546;89;30.00;46565.07
1737972670.596;83;30.00;42765.13
1737972670.646;83;30.00;42765.13
1737972670.696;83;30.00;42765.13
1737972670.746;74;30.00;36713.87
1737972670.796;86;30.00;44411.07
1737972670.846;86;30.00;44411.07
1737972670.896;86;30.00;44411.07
1737972670.946;85;30.00;43782.73
1737972670.996;84;30.00;43131.33
1737972671.046;84;30.00;43131.33
1737972671.096;84;30.00;43131.33
1737972671.147;86;30.00;44858.13
1737972671.197;81;30.00;41377.54
1737972671.247;81;30.00;41377.54
1737972671.297;81;30.00;41377.54
1737972671.347;80;30.00;40830.13
1737972671.397;88;30.00;45633.07
1737972671.447;88;30.00;45633.07
1737972671.497;88;30.00;45633.07
1737972671.548;81;30.00;40856.80
1737972671.598;89;30.00;46492.46
1737972671.648;89;30.00;46492.46
1737972671.697;89;30.00;46492.46
1737972671.748;86;30.00;44390.13
1737972671.798;79;30.00;39649.87
1737972671.848;79;30.00;39649.87
1737972671.899;86;30.00;44377.13
1737972671.949;86;30.00;44459.20
1737972671.999;86;30.00;44459.20
1737972672.048;86;30.00;44459.20
1737972672.099;85;30.00;43833.80
1737972672.148;85;30.00;43833.80
1737972672.199;85;30.00;43833.80
1737972672.248;85;30.00;43833.80
1737972672.299;86;30.00;44358.40
1737972672.348;86;30.00;44358.40
1737972672.399;86;30.00;44358.40
1737972672.449;87;30.00;45249.60
1737972672.499;84;30.00;43017.87
1737972672.549;84;30.00;43017.87
1737972672.598;84;30.00;43017.87
1737972672.648;81;30.00;41094.54
1737972672.699;77;30.00;38328.93
1737972672.749;77;30.00;38328.93
1737972672.799;77;30.00;38328.93
1737972672.849;77;30.00;38328.93
1737972672.900;79;30.00;39792.40
1737972672.951;79;30.00;39792.40
1737972673.000;79;30.00;39792.40
1737972673.051;81;30.00;41088.46
1737972673.100;83;30.00;42306.80
1737972673.150;83;30.00;42306.80
1737972673.201;83;30.00;42306.80
1737972673.252;87;30.00;45300.54
1737972673.302;89;30.00;46229.73
1737972673.352;89;30.00;46229.73
1737972673.402;89;30.00;46229.73
1737972673.453;77;30.00;38745.13
1737972673.503;80;30.00;40791.80
1737972673.553;80;30.00;40791.80
1737972673.603;72;30.00;34924.93
1737972673.653;82;30.00;41832.60
1737972673.703;77;30.00;38235.87
1737972673.753;77;30.00;38235.87
1737972673.803;85;30.00;43790.40
1737972673.853;76;30.00;37546.40
1737972673.903;78;30.00;39478.93
1737972673.953;78;30.00;39478.93
1737972674.003;78;30.00;39478.93
1737972674.054;85;30.00;44004.80
1737972674.104;86;30.00;44383.07
1737972674.154;86;30.00;44383.07
1737972674.204;86;30.00;44383.07
1737972674.255;79;30.00;39762.07
1737972674.306;84;30.00;42918.67
1737972674.356;84;30.00;42918.67
1737972674.405;84;30.00;42918.67
1737972674.456;75;30.00;37271.73
1737972674.506;73;30.00;35993.20
1737972674.557;73;30.00;35993.20
1737972674.607;73;30.00;35993.20
1737972674.657;80;30.00;40188.54
1737972992.129;75;20.00;37250.40
1737972992.178;75;20.00;37250.40
1737972992.228;75;20.00;37048.87
1737972992.278;75;20.00;37022.93
1737972992.329;75;20.00;37022.93
1737972992.379;76;20.00;38035.60
1737972992.430;74;20.00;36276.80
1737972992.480;74;20.00;36276.80
1737972992.530;78;20.00;39178.40
1737972992.580;83;20.00;42845.73
1737972992.630;83;20.00;42845.73
1737972992.680;83;20.00;42845.73
1737972992.730;76;20.00;37557.27
1737972992.780;76;20.00;37480.80
1737972992.829;76;20.00;37480.80
1737972992.880;83;20.00;42202.93
1737972992.930;87;20.00;45382.93
1737972992.979;87;20.00;45382.93
1737972993.029;87;20.00;45382.93
1737972993.081;85;20.00;43826.20
1737972993.131;84;20.00;43377.33
1737972993.180;84;20.00;43377.33
1737972993.231;84;20.00;43377.33
1737972993.280;74;20.00;36539.46
1737972993.331;80;20.00;40701.46
1737972993.381;80;20.00;40701.46
1737972993.431;80;20.00;40701.46
1737972993.480;86;20.00;44378.27
1737972993.531;83;20.00;42259.07
1737972993.581;83;20.00;42259.07
1737972993.630;83;20.00;42259.07
1737972993.682;82;20.00;41908.40
1737972993.732;83;20.00;42291.33
1737972993.781;83;20.00;42291.33
1737972993.832;83;20.00;42291.33
1737972993.881;74;20.00;36606.13
1737972993.932;81;20.00;41229.93
1737972993.982;81;20.00;41229.93
1737972994.032;81;20.00;41229.93
1737972994.082;85;20.00;43811.46
1737972994.132;85;20.00;43811.46
1737972994.183;85;20.00;43811.46
1737972994.232;79;20.00;39813.07
1737972994.282;89;20.00;46751.46
1737972994.333;89;20.00;46751.46
1737972994.384;88;20.00;45734.00
1737972994.433;76;20.00;37860.80
1737972994.484;76;20.00;37860.80
1737972994.533;76;20.00;37860.80
1737972994.583;80;20.00;40766.46
1737972994.634;88;20.00;45632.33
1737972994.684;88;20.00;45632.33
1737972994.734;88;20.00;45632.33
1737972994.783;72;20.00;35366.93
1737972994.834;79;20.00;39759.73
1737972994.884;79;20.00;39759.73
1737972994.934;79;20.00;39759.73
1737972994.984;73;20.00;35546.67
1737972995.034;73;20.00;35546.67
1737972995.084;73;20.00;35546.67
1737972995.134;82;20.00;42046.54
1737972995.184;82;20.00;42046.54
1737972995.234;82;20.00;42046.54
1737972995.284;77;20.00;38264.80
1737972995.335;78;20.00;39154.80
1737972995.385;78;20.00;39154.80
1737972995.435;78;20.00;39154.80
1737972995.485;81;20.00;41069.60
1737972995.535;80;20.00;40464.00
1737972995.585;84;20.00;43168.54
1737972995.635;84;20.00;43168.54
1737972995.685;84;20.00;43168.54
1737972995.735;75;20.00;37455.33
1737972995.784;74;20.00;36608.54
1737972995.834;74;20.00;36608.54
1737972995.885;74;20.00;36608.54
1737972995.935;84;20.00;43281.87
1737972995.984;78;20.00;39361.07
1737972996.035;78;20.00;39361.07
1737972996.085;78;20.00;39361.07
1737972996.135;74;20.00;36741.93
1737972996.185;74;20.00;36304.33
1737972996.235;74;20.00;36304.33
1737972996.285;74;20.00;36304.33
1737972996.335;91;20.00;48208.20
1737972996.385;88;20.00;45577.54
1737972996.435;88;20.00;45577.54
1737972996.485;88;20.00;45577.54
1737972996.535;78;20.00;39005.60
1737973007.548;76;20.00;37685.33
1737973007.599;76;20.00;37685.33
1737973007.649;76;20.00;37685.33
1737973007.700;73;20.00;36031.46
1737973007.750;74;20.00;36679.60
1737973007.800;74;20.00;36679.60
1737973007.850;74;20.00;36679.60
1737973007.900;86;20.00;44581.07
1737973007.950;86;20.00;44581.07
1737973008.000;86;20.00;44581.07
1737973008.050;83;20.00;42190.13
1737973008.099;78;20.00;38985.93
1737973008.149;78;20.00;38985.93
1737973008.200;76;20.00;37643.27
1737973008.250;76;20.00;38067.46
1737973008.300;81;20.00;41085.73
1737973008.350;81;20.00;41085.73
1737973008.400;80;20.00;40193.20
1737973008.450;76;20.00;37575.27
1737973008.500;76;20.00;37499.27
1737973008.550;76;20.00;37499.27
1737973008.600;81;20.00;41095.20
1737973008.651;84;20.00;42959.07
1737973008.700;75;20.00;36954.67
1737973008.750;75;20.00;36954.67
1737973008.800;73;20.00;35749.87
1737973008.851;81;20.00;40914.46
1737973008.901;81;20.00;40914.46
1737973008.951;81;20.00;40914.46
1737973009.001;80;20.00;40483.20
1737973009.052;80;20.00;40400.27
1737973009.101;80;20.00;40400.27
1737973009.151;72;20.00;35375.46
1737973009.201;78;20.00;39308.27
1737973009.251;78;20.00;39308.27
1737973009.301;78;20.00;39308.27
1737973009.351;86;20.00;44670.87
1737973009.401;73;20.00;36000.54
1737973009.451;73;20.00;36000.54
1737973009.501;75;20.00;37357.60
1737973009.551;73;20.00;35796.00
1737973009.601;73;20.00;35953.07
1737973009.651;73;20.00;35953.07
1737973009.702;76;20.00;37517.54
1737973009.751;72;20.00;35030.93
1737973009.801;77;20.00;38273.60
1737973009.852;77;20.00;38273.60
1737973009.902;89;20.00;46844.13
1737973009.952;82;20.00;41554.20
1737973010.003;73;20.00;35493.73
1737973010.053;73;20.00;35493.73
1737973010.102;81;20.00;41069.46
1737973010.302;77;20.00;38354.67
1737973010.354;77;20.00;38619.73
1737973010.403;77;20.00;38619.73
1737973010.453;77;20.00;38619.73
1737973010.503;77;20.00;38234.00
1737973010.554;76;20.00;37478.46
1737973010.604;76;20.00;37478.46
1737973010.653;76;20.00;37478.46
1737973010.703;73;20.00;36014.46
1737973010.753;74;20.00;36731.40
1737973010.804;74;20.00;36731.40
1737973010.855;74;20.00;36731.40
1737973010.904;74;20.00;36220.13
1737973010.954;74;20.00;36466.27
1737973011.005;74;20.00;36466.27
1737973011.055;75;20.00;37024.54
1737973011.255;74;20.00;36329.73
1737973011.304;74;20.00;36329.73
1737973011.354;74;20.00;36329.73
1737973011.404;79;20.00;40116.73
1737973011.454;90;20.00;46927.93
1737973011.506;90;20.00;46927.93
1737973011.556;90;20.00;46927.93
1737973011.606;86;20.00;44825.87
1737973011.656;83;20.00;42263.60
1737973011.708;83;20.00;42236.93
1737973011.758;83;20.00;42236.93
1737973011.808;83;20.00;42236.93
1737973011.857;75;20.00;37186.40
1737973011.907;85;20.00;43691.07
1737973011.959;85;20.00;43691.07
1737973012.009;85;20.00;43691.07
1737973012.058;82;20.00;41850.13
1737973023.358;77;20.00;38149.60
1737973023.408;77;20.00;38437.07
1737973023.458;77;20.00;38437.07
1737973023.508;77;20.00;38437.07
1737973023.558;81;20.00;41285.87
1737973023.608;86;20.00;44646.87
1737973023.658;86;20.00;44646.87
1737973023.708;86;20.00;44646.87
1737973023.758;89;20.00;46531.40
1737973023.808;80;20.00;40193.46
1737973023.859;80;20.00;40193.46
1737973023.908;80;20.00;40193.46
1737973023.959;88;20.00;45810.80
1737973024.008;89;20.00;46495.54
1737973024.058;89;20.00;46495.54
1737973024.108;89;20.00;46495.54
1737973024.159;76;20.00;38032.46
1737973024.209;78;20.00;39087.00
1737973024.259;78;20.00;39087.00
1737973024.309;78;20.00;39087.00
1737973024.359;89;20.00;46637.87
1737973024.409;90;20.00;47371.46
1737973024.459;90;20.00;47371.46
1737973024.509;90;20.00;47371.46
1737973024.560;90;20.00;47371.46
1737973024.610;81;20.00;41219.54
1737973024.660;81;20.00;41219.54
1737973024.710;81;20.00;41219.54
1737973024.760;85;20.00;43826.13
1737973024.810;80;20.00;40415.46
1737973024.861;83;20.00;42683.20
1737973024.910;83;20.00;42683.20
1737973024.960;83;20.00;42683.20
1737973025.010;72;20.00;35037.33
1737973025.060;72;20.00;35037.33
1737973025.111;72;20.00;35037.33
1737973025.162;72;20.00;34934.00
1737973025.212;72;20.00;35357.87
1737973025.262;72;20.00;35357.87
1737973025.311;72;20.00;35357.87
1737973025.362;84;20.00;43122.20
1737973025.412;84;20.00;43122.20
1737973025.463;84;20.00;43122.20
1737973025.513;72;20.00;35285.07
1737973025.563;81;20.00;41192.00
1737973025.613;81;20.00;41192.00
1737973025.663;81;20.00;41192.00
1737973025.713;86;20.00;44680.07
1737973025.764;76;20.00;37923.33
1737973025.814;76;20.00;37923.33
1737973025.865;78;20.00;39250.27
1737973025.914;72;20.00;34973.67
1737973025.965;72;20.00;34973.67
1737973026.014;72;20.00;34973.67
1737973026.114;81;20.00;41401.33
1737973026.165;81;20.00;41401.33
1737973026.215;81;20.00;41401.33
1737973026.265;73;20.00;35812.27
1737973026.315;85;20.00;43636.46
1737973026.366;85;20.00;43636.46
1737973026.415;85;20.00;43636.46
1737973026.466;92;20.00;48354.46
1737973026.517;89;20.00;46864.87
1737973026.567;89;20.00;46864.87
1737973026.616;89;20.00;46864.87
1737973026.667;79;20.00;39983.93
1737973026.717;88;20.00;45687.80
1737973026.767;88;20.00;45687.80
1737973026.816;88;20.00;45676.60
1737973026.868;73;20.00;35722.07
1737973026.918;82;20.00;41933.33
1737973026.968;82;20.00;41933.33
1737973027.017;82;20.00;41933.33
1737973027.068;82;20.00;41879.13
1737973027.118;82;20.00;42033.07
1737973027.168;82;20.00;42033.07
1737973027.218;79;20.00;39943.46
1737973027.268;80;20.00;40636.93
1737973027.318;79;20.00;39798.13
1737973027.367;79;20.00;39798.13
1737973027.417;85;20.00;43939.87
1737973027.467;86;20.00;44323.13
1737973027.517;86;20.00;44323.13
1737973027.567;86;20.00;44323.13
1737973027.618;91;20.00;47670.27
1737973027.668;82;20.00;41874.00
1737973164.784;350;10.94;38445.07
1737973164.835;350;10.54;36456.20
1737973164.885;350;10.54;36456.20
1737973164.935;350;10.54;36456.20
1737973164.984;350;10.72;37346.00
1737973165.035;350;11.29;40158.54
1737973165.084;350;11.29;40158.54
1737973165.135;350;12.14;44371.33
1737973165.184;350;11.29;40170.93
1737973165.235;350;11.29;40170.93
1737973165.285;350;11.61;41725.20
1737973165.334;350;12.16;44468.00
1737973165.384;350;12.16;44468.00
1737973165.436;350;12.16;44468.00
1737973165.486;350;11.52;41277.07
1737973165.535;350;11.99;43655.20
1737973165.586;350;11.99;43655.20
1737973165.635;350;11.99;43655.20
1737973165.685;350;11.20;39699.46
1737973165.736;350;11.80;42700.54
1737973165.785;350;11.80;42700.54
1737973165.837;350;11.80;42700.54
1737973165.887;350;10.53;36378.80
1737973165.936;350;11.70;42194.46
1737973165.986;350;11.70;42194.46
1737973166.036;350;11.70;42194.46
1737973166.087;350;12.04;43856.80
1737973166.137;350;12.02;43771.07
1737973166.186;350;12.05;43952.13
1737973166.237;350;12.05;43952.13
1737973166.286;350;12.32;45285.20
1737973166.337;350;11.54;41395.33
1737973166.387;350;11.54;41395.33
1737973166.437;350;11.54;41395.33
1737973166.487;350;10.57;36597.67
1737973166.537;350;10.62;36833.07
1737973166.586;350;10.62;36833.07
1737973166.637;350;10.62;36833.07
1737973166.687;350;11.92;43286.73
1737973166.737;350;11.85;42928.73
1737973166.787;350;11.85;42928.73
1737973166.838;350;11.26;40025.60
1737973166.887;350;12.01;43735.73
1737973166.938;350;12.01;43735.73
1737973166.987;350;12.01;43735.73
1737973167.041;350;11.41;40732.54
1737973167.091;350;11.18;39632.13
1737973167.140;350;11.18;39632.13
1737973167.190;350;11.18;39632.13
1737973167.241;350;12.31;45235.46
1737973167.291;350;12.05;43912.54
1737973167.341;350;12.05;43912.54
1737973167.391;350;12.05;43912.54
1737973167.441;350;11.89;43119.13
1737973167.491;350;11.50;41203.46
1737973167.542;350;11.50;41203.46
1737973167.592;350;11.50;41203.46
1737973167.642;350;11.31;40241.46
1737973167.691;350;12.18;44566.40
1737973167.742;350;12.18;44566.40
1737973167.792;350;12.18;44566.40
1737973167.842;350;12.03;43817.33
1737973167.892;350;11.34;40390.13
1737973167.942;350;11.34;40390.13
1737973167.992;350;12.48;46063.93
1737973168.042;350;12.18;44581.07
1737973168.093;350;11.99;43617.54
1737973168.143;350;11.99;43617.54
1737973168.192;350;11.57;41559.07
1737973168.243;350;11.74;42371.20
1737973168.292;350;11.74;42371.20
1737973168.343;350;11.74;42371.20
1737973168.393;350;11.68;42078.40
1737973168.443;350;11.51;41235.87
1737973168.493;350;11.51;41235.87
1737973168.543;350;11.72;42286.00
1737973168.592;350;11.29;40137.00
1737973168.643;350;11.29;40137.00
1737973168.693;350;10.38;35658.67
1737973168.742;350;10.38;35658.67
1737973168.794;350;10.38;35658.67
1737973168.843;350;11.46;41001.87
1737973178.436;350;10.85;37951.73
1737973178.485;350;10.85;37951.73
1737973178.536;350;11.09;39171.60
1737973178.586;350;11.49;41136.40
1737973178.636;350;11.49;41136.40
1737973178.685;350;11.80;42691.87
1737973178.735;350;11.43;40830.93
1737973178.785;350;11.43;40830.93
1737973178.835;350;11.79;42619.73
1737973178.886;350;11.44;40886.13
1737973178.936;350;11.44;40886.13
1737973178.986;350;11.57;41536.00
1737973179.035;350;11.47;41072.40
1737973179.085;350;11.47;41072.40
1737973179.137;350;11.47;41072.40
1737973179.187;350;11.77;42554.40
1737973179.236;350;11.77;42554.40
1737973179.287;350;11.77;42554.40
1737973179.337;350;11.24;39907.93
1737973179.387;350;11.98;43590.13
1737973179.437;350;11.98;43590.13
1737973179.487;350;11.67;42044.54
1737973179.537;350;10.99;38679.93
1737973179.587;350;10.99;38679.93
1737973179.637;350;10.99;38679.93
1737973179.687;350;12.30;45184.80
1737973179.737;350;12.30;45184.80
1737973179.787;350;10.55;36496.27
1737973179.837;350;12.01;43741.00
1737973179.887;350;12.01;43741.00
1737973179.937;350;11.68;42107.33
1737973179.987;350;10.86;38008.54
1737973180.036;350;10.86;38008.54
1737973180.087;350;11.77;42516.27
1737973180.138;350;12.28;45044.93
1737973180.187;350;11.42;40820.40
1737973180.238;350;11.42;40820.40
1737973180.288;350;12.37;45532.27
1737973180.339;350;10.43;35914.67
1737973180.388;350;10.43;35914.67
1737973180.438;350;10.43;35914.67
1737973180.488;350;10.87;38067.13
1737973180.539;350;10.87;38067.13
1737973180.589;350;10.87;38067.13
1737973180.638;350;12.22;44760.13
1737973180.689;350;11.72;42282.93
1737973180.739;350;11.72;42282.93
1737973180.789;350;10.37;35579.73
1737973180.840;350;11.00;38704.07
1737973180.889;350;11.00;38704.07
1737973180.939;350;11.19;39654.87
1737973180.989;350;10.66;37032.27
1737973181.040;350;10.66;37032.27
1737973181.090;350;10.96;38538.27
1737973181.140;350;11.54;41389.73
1737973181.190;350;11.54;41389.73
1737973181.240;350;11.68;42086.46
1737973181.290;350;11.02;38830.27
1737973181.341;350;11.02;38830.27
1737973181.392;350;11.75;42421.20
1737973181.443;350;10.55;36493.07
1737973181.493;350;10.55;36493.07
1737973181.543;350;10.80;37753.07
1737973181.593;350;10.48;36130.67
1737973181.643;350;10.48;36130.67
1737973181.693;350;11.24;39926.13
1737973181.743;350;10.87;38051.60
1737973181.792;350;10.87;38051.60
1737973181.843;350;10.87;38051.60
1737973181.894;350;10.31;35274.67
1737973181.944;350;10.60;36740.54
1737973181.994;350;10.60;36740.54
1737973182.044;350;10.60;36740.54
1737973191.653;350;10.98;38634.33
1737973191.703;350;10.98;38634.33
1737973191.753;350;10.98;38634.33
1737973191.803;350;12.06;43976.80
1737973191.854;350;12.06;43976.80
1737973191.904;350;11.71;42251.60
1737973191.953;350;10.75;37502.67
1737973192.005;350;10.75;37502.67
1737973192.055;350;10.75;37502.67
1737973192.104;350;11.92;43298.93
1737973192.155;350;11.92;43298.93
1737973192.205;350;11.92;43298.93
1737973192.255;350;12.05;43930.67
1737973192.306;350;12.26;44990.00
1737973192.356;350;12.26;44990.00
1737973192.406;350;10.87;38095.07
1737973192.457;350;10.94;38444.40
1737973192.507;350;10.94;38444.40
1737973192.558;350;11.01;38769.46
1737973192.610;350;11.47;41035.73
1737973192.660;350;11.47;41035.73
1737973192.709;350;11.47;41035.73
1737973192.760;350;12.18;44596.20
1737973192.809;350;12.21;44711.87
1737973192.861;350;12.21;44711.87
1737973192.910;350;10.47;36100.00
1737973192.961;350;10.69;37163.33
1737973193.010;350;10.69;37163.33
1737973193.060;350;10.69;37163.33
1737973193.112;350;11.31;40249.00
1737973193.162;350;11.31;40249.00
1737973193.211;350;11.31;40249.00
1737973193.261;350;11.74;42405.33
1737973193.311;350;11.72;42287.20
1737973193.361;350;11.72;42287.20
1737973193.411;350;11.52;41311.46
1737973193.462;350;11.42;40782.27
1737973193.512;350;11.42;40782.27
1737973193.562;350;11.42;40782.27
1737973193.613;350;10.86;38025.60
1737973193.663;350;10.86;38025.60
1737973193.715;350;10.86;38025.60
1737973193.765;350;12.25;44942.40
1737973193.816;350;11.53;41373.33
1737973193.866;350;11.53;41373.33
1737973193.916;350;11.41;40749.87
1737973193.967;350;11.34;40417.87
1737973194.016;350;11.34;40417.87
1737973194.067;350;11.61;41730.54
1737973194.117;350;10.74;37422.67
1737973194.167;350;10.74;37422.67
1737973194.217;350;12.42;45776.40
1737973194.267;350;12.42;45776.40
1737973194.317;350;12.42;45776.40
1737973194.368;350;12.29;45109.20
1737973194.417;350;12.29;45109.20
1737973194.468;350;12.29;45109.20
1737973194.517;350;11.78;42592.07
1737973194.567;350;12.01;43747.33
1737973194.618;350;12.01;43747.33
1737973194.668;350;10.74;37417.60
1737973194.718;350;10.74;37417.60
1737973194.769;350;10.74;37417.60
1737973194.819;350;11.27;40078.93
1737973194.868;350;11.87;43021.87
1737973194.918;350;11.87;43021.87
1737973194.969;350;11.73;42350.07
1737973195.020;350;11.74;42373.60
1737973195.070;350;11.74;42373.60
1737973195.119;350;10.84;37939.73
1737973195.170;350;11.06;39007.73
1737973195.220;350;11.06;39007.73
1737973195.270;350;11.06;39007.73
1737973328.349;75;10.00;37436.80
1737973328.397;74;10.00;36799.73
1737973328.447;74;10.00;36799.73
1737973328.498;74;10.00;36457.07
1737973328.548;79;10.00;39555.07
1737973328.598;79;10.00;39555.07
1737973328.648;77;10.00;38672.87
1737973328.698;73;10.00;36111.60
1737973328.748;73;10.00;36111.60
1737973328.799;78;10.00;38824.93
1737973328.849;79;10.00;39608.93
1737973328.900;79;10.00;39608.93
1737973328.950;86;10.00;44586.33
1737973329.001;86;10.00;44586.33
1737973329.050;86;10.00;44586.33
1737973329.100;83;10.00;42480.80
1737973329.151;77;10.00;38453.33
1737973329.202;77;10.00;38453.33
1737973329.251;75;10.00;36930.80
1737973329.301;75;10.00;36930.80
1737973329.353;75;10.00;36930.80
1737973329.403;84;10.00;43136.93
1737973329.454;76;10.00;38056.13
1737973329.504;76;10.00;38056.13
1737973329.553;72;10.00;35153.60
1737973329.604;73;10.00;35882.60
1737973329.654;73;10.00;35882.60
1737973329.704;82;10.00;41620.20
1737973329.753;76;10.00;37498.54
1737973329.804;76;10.00;37498.54
1737973329.854;76;10.00;37591.07
1737973329.903;75;10.00;37376.80
1737973329.954;75;10.00;37376.80
1737973330.004;75;10.00;37376.80
1737973330.055;77;10.00;38146.07
1737973330.104;77;10.00;38146.07
1737973330.155;77;10.00;38146.07
1737973330.205;81;10.00;41417.93
1737973330.256;77;10.00;38261.93
1737973330.306;77;10.00;38261.93
1737973330.355;78;10.00;39229.80
1737973330.405;77;10.00;38644.46
1737973330.456;77;10.00;38644.46
1737973330.505;78;10.00;39184.40
1737973330.555;73;10.00;36046.40
1737973330.606;73;10.00;36046.40
1737973330.655;80;10.00;40460.54
1737973330.705;80;10.00;40460.54
1737973330.756;80;10.00;40460.54
1737973330.805;87;10.00;45359.73
1737973330.855;86;10.00;44792.40
1737973330.906;86;10.00;44792.40
1737973330.955;85;10.00;44105.87
1737973331.005;74;10.00;36701.07
1737973331.055;74;10.00;36701.07
1737973331.105;74;10.00;36701.07
1737973331.157;80;10.00;40234.07
1737973331.207;80;10.00;40487.67
1737973331.257;80;10.00;40487.67
1737973331.307;80;10.00;40314.20
1737973331.357;72;10.00;34981.87
1737973331.407;72;10.00;34981.87
1737973331.507;81;10.00;41112.27
1737973331.557;89;10.00;46217.27
1737973331.607;89;10.00;46217.27
1737973331.657;82;10.00;42136.00
1737973331.707;78;10.00;39318.67
1737973331.757;78;10.00;39318.67
1737973331.807;77;10.00;38378.40
1737973342.106;76;10.00;37816.40
1737973342.156;78;10.00;38974.33
1737973342.207;78;10.00;38974.33
1737973342.257;78;10.00;39319.67
1737973342.307;75;10.00;37070.80
1737973342.356;75;10.00;37070.80
1737973342.407;75;10.00;37070.80
1737973342.457;77;10.00;38596.00
1737973342.507;77;10.00;38596.00
1737973342.557;77;10.00;38596.00
1737973342.607;86;10.00;44359.13
1737973342.657;80;10.00;40622.67
1737973342.707;80;10.00;40622.67
1737973342.757;84;10.00;42870.60
1737973342.807;79;10.00;40067.93
1737973342.857;79;10.00;40067.93
1737973342.907;79;10.00;40067.93
1737973342.957;73;10.00;35474.67
1737973343.007;73;10.00;35474.67
1737973343.057;73;10.00;35474.67
1737973343.107;77;10.00;38250.93
1737973343.157;74;10.00;36587.73
1737973343.207;74;10.00;36587.73
1737973343.258;74;10.00;36587.73
1737973343.308;85;10.00;43586.46
1737973343.358;80;10.00;40803.67
1737973343.409;80;10.00;40803.67
1737973343.461;80;10.00;40803.67
1737973343.508;77;10.00;38500.87
1737973343.559;78;10.00;39186.67
1737973343.609;78;10.00;39186.67
1737973343.658;78;10.00;39186.67
1737973343.708;78;10.00;39442.60
1737973343.759;85;10.00;44096.87
1737973343.808;85;10.00;44096.87
1737973343.858;85;10.00;44096.87
1737973343.908;78;10.00;39205.07
1737973343.958;76;10.00;37914.67
1737973344.008;76;10.00;37914.67
1737973344.058;72;10.00;35306.40
1737973344.109;83;10.00;42398.40
1737973344.159;83;10.00;42328.27
1737973344.209;83;10.00;42328.27
1737973344.259;78;10.00;38980.80
1737973344.309;75;10.00;37422.67
1737973344.359;75;10.00;37422.67
1737973344.409;72;10.00;35186.67
1737973344.460;72;10.00;34942.93
1737973344.510;72;10.00;34942.93
1737973344.559;72;10.00;34942.93
1737973344.610;73;10.00;35494.13
1737973344.659;86;10.00;44624.54
1737973344.709;86;10.00;44624.54
1737973344.759;86;10.00;44624.54
1737973344.809;87;10.00;45221.60
1737973344.860;74;10.00;36190.93
1737973344.910;74;10.00;36190.93
1737973344.959;74;10.00;36190.93
1737973345.009;74;10.00;36480.54
1737973345.060;76;10.00;37796.54
1737973345.111;76;10.00;37796.54
1737973345.160;76;10.00;37796.54
1737973345.210;79;10.00;39922.87
1737973345.260;79;10.00;39758.93
1737973345.311;79;10.00;39758.93
1737973345.361;79;10.00;39758.93
1737973345.411;86;10.00;44335.80
1737973345.460;88;10.00;46020.40
1737973345.511;88;10.00;46020.40
1737973345.560;88;10.00;46020.40
1737973345.611;76;10.00;37501.87
1737973345.661;79;10.00;39625.33
1737973345.710;79;10.00;39625.33
1737973345.760;79;10.00;39625.33
1737973345.860;85;10.00;43857.80
1737973345.910;85;10.00;43857.80
1737973345.960;85;10.00;43857.80
1737973346.011;78;10.00;39217.07
1737973356.739;76;10.00;37945.27
1737973356.788;76;10.00;37945.27
1737973356.839;76;10.00;37945.27
1737973356.889;74;10.00;36340.54
1737973356.939;74;10.00;36340.54
1737973356.989;74;10.00;36340.54
1737973357.040;73;10.00;35906.67
1737973357.089;78;10.00;38943.46
1737973357.141;78;10.00;38943.46
1737973357.190;73;10.00;35839.20
1737973357.241;72;10.00;35409.00
1737973357.290;72;10.00;35409.00
1737973357.341;72;10.00;35409.00
1737973357.391;80;10.00;40603.40
1737973357.441;80;10.00;40603.40
1737973357.490;80;10.00;40603.40
1737973357.540;78;10.00;38853.87
1737973357.590;78;10.00;38853.87
1737973357.641;78;10.00;38853.87
1737973357.691;85;10.00;44036.54
1737973357.741;80;10.00;40749.67
1737973357.791;80;10.00;40749.67
1737973357.841;80;10.00;40749.67
1737973357.891;76;10.00;37635.46
1737973357.941;84;10.00;43245.27
1737973357.991;84;10.00;43245.27
1737973358.042;84;10.00;43245.27
1737973358.091;75;10.00;37312.46
1737973358.142;85;10.00;44180.93
1737973358.191;82;10.00;41816.87
1737973358.241;82;10.00;41816.87
1737973358.292;83;10.00;42687.00
1737973358.343;75;10.00;36984.13
1737973358.392;75;10.00;36984.13
1737973358.443;75;10.00;36984.13
1737973358.493;80;10.00;40215.27
1737973358.543;78;10.00;39216.00
1737973358.593;78;10.00;39216.00
1737973358.643;78;10.00;39216.00
1737973358.692;72;10.00;35105.73
1737973358.743;76;10.00;37598.67
1737973358.793;76;10.00;37598.67
1737973358.844;76;10.00;37598.67
1737973358.893;78;10.00;39033.73
1737973358.943;75;10.00;37136.80
1737973358.994;75;10.00;37136.80
1737973359.044;75;10.00;37136.80
1737973359.094;75;10.00;37162.67
1737973359.144;75;10.00;37162.67
1737973359.193;75;10.00;37162.67
1737973359.244;73;10.00;35459.20
1737973359.294;76;10.00;37519.67
1737973359.343;76;10.00;37519.67
1737973359.394;76;10.00;37519.67
1737973359.443;78;10.00;39197.87
1737973359.494;84;10.00;43175.80
1737973359.544;84;10.00;43175.80
1737973359.594;84;10.00;43175.80
1737973359.644;75;10.00;37050.67
1737973359.694;85;10.00;43810.00
1737973359.744;85;10.00;43810.00
1737973359.795;82;10.00;41818.46
1737973359.845;84;10.00;42970.54
1737973359.895;75;10.00;37349.73
1737973359.945;75;10.00;37349.73
1737973359.995;81;10.00;40902.60
1737973360.045;79;10.00;39508.13
1737973360.096;79;10.00;39508.13
1737973360.145;79;10.00;39508.13
1737973360.195;76;10.00;37728.54
1737973360.245;72;10.00;35067.73
1737973360.295;72;10.00;35067.73
1737973360.346;72;10.00;35067.73
1737973360.395;80;10.00;40448.00
1737973492.644;200;11.11;39278.40
1737973492.694;200;11.11;39278.40
1737973492.744;200;11.11;39278.40
1737973492.793;200;12.40;45652.20
1737973492.843;200;12.40;45652.20
1737973492.893;200;12.40;45652.20
1737973492.944;200;11.81;42761.33
1737973492.994;200;12.38;45541.93
1737973493.044;200;12.38;45541.93
1737973493.093;200;12.38;45541.93
1737973493.144;200;10.55;36476.80
1737973493.193;200;10.55;36476.80
1737973493.244;200;10.55;36476.80
1737973493.294;200;11.88;43064.27
1737973493.344;200;12.17;44539.46
1737973493.393;200;12.17;44539.46
1737973493.444;200;12.17;44539.46
1737973493.494;200;11.03;38856.67
1737973493.543;200;12.10;44185.87
1737973493.595;200;12.10;44185.87
1737973493.644;200;12.10;44185.87
1737973493.694;200;10.40;35739.60
1737973493.745;200;11.64;41911.46
1737973493.795;200;11.64;41911.46
1737973493.844;200;11.64;41911.46
1737973493.894;200;10.92;38305.00
1737973493.944;200;10.92;38305.00
1737973493.994;200;10.92;38305.00
1737973494.044;200;11.38;40590.20
1737973494.094;200;11.11;39262.07
1737973494.145;200;11.11;39262.07
1737973494.195;200;11.11;39262.07
1737973494.244;200;11.71;42236.87
1737973494.294;200;12.15;44448.54
1737973494.345;200;12.15;44448.54
1737973494.395;200;12.15;44448.54
1737973494.444;200;12.22;44748.27
1737973494.495;200;12.32;45286.67
1737973494.545;200;12.32;45286.67
1737973494.596;200;12.32;45286.67
1737973494.645;200;11.66;42001.80
1737973494.696;200;11.71;42243.60
1737973494.745;200;11.13;39348.80
1737973494.795;200;11.13;39348.80
1737973494.845;200;11.13;39348.80
1737973494.896;200;11.72;42273.60
1737973494.946;200;12.47;46016.54
1737973494.996;200;12.47;46016.54
1737973495.046;200;12.47;46016.54
1737973495.095;200;10.59;36697.27
1737973495.146;200;10.37;35613.13
1737973495.195;200;10.37;35613.13
1737973495.245;200;10.37;35613.13
1737973495.296;200;11.09;39144.54
1737973495.345;200;10.30;35248.27
1737973495.397;200;10.30;35248.27
1737973495.447;200;10.30;35248.27
1737973495.496;200;12.22;44764.93
1737973495.547;200;12.22;44764.93
1737973495.596;200;12.22;44764.93
1737973495.646;200;10.77;37590.40
1737973495.697;200;11.49;41173.87
1737973495.747;200;11.49;41173.87
1737973495.797;200;11.49;41173.87
1737973495.847;200;10.25;34992.80
1737973495.897;200;10.66;37031.73
1737973495.947;200;10.78;37635.27
1737973495.997;200;10.78;37635.27
1737973496.047;200;11.74;42409.27
1737973496.097;200;11.23;39847.60
1737973496.147;200;11.23;39847.60
1737973496.197;200;11.23;39847.60
1737973496.247;200;12.52;46263.46
1737973496.297;200;10.33;35407.33
1737973496.348;200;10.33;35407.33
1737973496.398;200;10.33;35407.33
1737973496.448;200;10.33;35407.33
1737973496.498;200;12.21;44734.13
1737973496.548;200;10.77;37584.13
1737973496.598;200;10.77;37584.13
1737973496.648;200;11.03;38872.27
1737973496.698;200;10.77;37589.60
1737973496.749;200;11.27;40062.67
1737973496.799;200;11.27;40062.67
1737973496.848;200;11.25;39972.27
1737973496.898;200;11.13;39359.73
1737973496.949;200;11.13;39359.73
1737973496.999;200;11.13;39359.73
1737973497.048;200;11.87;43047.80
1737973497.098;200;11.83;42817.20
1737973497.148;200;11.83;42817.20
1737973497.198;200;11.83;42817.20
1737973497.249;200;12.25;44917.67
1737973497.298;200;12.25;44917.67
1737973497.348;200;12.25;44917.67
1737973497.400;200;12.41;45700.46
1737973507.676;200;10.67;37075.46
1737973507.726;200;10.67;37075.46
1737973507.777;200;10.67;37075.46
1737973507.826;200;10.64;36957.73
1737973507.877;200;11.84;42885.07
1737973507.927;200;11.84;42885.07
1737973507.977;200;12.34;45378.60
1737973508.027;200;10.51;36273.54
1737973508.077;200;10.51;36273.54
1737973508.127;200;10.51;36273.54
1737973508.177;200;11.37;40572.27
1737973508.227;200;10.76;37531.54
1737973508.277;200;10.76;37531.54
1737973508.327;200;10.76;37531.54
1737973508.377;200;11.03;38884.40
1737973508.427;200;11.79;42648.27
1737973508.477;200;11.79;42648.27
1737973508.527;200;11.79;42648.27
1737973508.577;200;11.40;40712.80
1737973508.627;200;10.35;35494.67
1737973508.677;200;10.35;35494.67
1737973508.728;200;10.84;37934.67
1737973508.778;200;12.05;43940.67
1737973508.828;200;11.82;42780.27
1737973508.878;200;11.82;42780.27
1737973508.929;200;11.29;40161.33
1737973508.980;200;10.83;37866.93
1737973509.029;200;10.83;37866.93
1737973509.080;200;10.83;37866.93
1737973509.129;200;10.83;37866.93
1737973509.179;200;11.45;40951.54
1737973509.229;200;10.58;36651.46
1737973509.279;200;10.58;36651.46
1737973509.331;200;11.93;43320.07
1737973509.381;200;11.87;43022.27
1737973509.431;200;11.87;43022.27
1737973509.482;200;11.87;43022.27
1737973509.531;200;11.73;42326.13
1737973509.582;200;11.74;42383.00
1737973509.631;200;11.74;42383.00
1737973509.682;200;11.05;38985.33
1737973509.731;200;12.51;46226.93
1737973509.782;200;12.51;46226.93
1737973509.832;200;12.11;44217.87
1737973509.883;200;11.77;42554.40
1737973509.933;200;11.77;42554.40
1737973509.982;200;11.77;42554.40
1737973510.033;200;11.67;42044.60
1737973510.083;200;11.67;42044.60
1737973510.133;200;11.67;42044.60
1737973510.183;200;11.28;40094.80
1737973510.233;200;11.44;40881.73
1737973510.283;200;11.44;40881.73
1737973510.333;200;11.44;40881.73
1737973510.383;200;10.41;35781.60
1737973510.433;200;11.63;41852.33
1737973510.483;200;11.63;41852.33
1737973510.533;200;11.63;41852.33
1737973510.583;200;10.88;38135.46
1737973510.634;200;11.78;42584.27
1737973510.684;200;11.78;42584.27
1737973510.735;200;11.78;42584.27
1737973510.785;200;12.29;45100.54
1737973510.835;200;11.55;41450.13
1737973510.886;200;11.55;41450.13
1737973510.935;200;11.55;41450.13
1737973510.986;200;11.95;43408.54
1737973511.036;200;12.16;44480.46
1737973511.086;200;12.16;44480.46
1737973511.135;200;12.16;44480.46
1737973511.186;200;10.52;36325.73
1737973511.237;200;10.27;35115.54
1737973511.287;200;10.27;35115.54
1737973511.336;200;10.49;36202.27
1737973511.387;200;11.13;39349.87
1737973511.437;200;11.58;41576.80
1737973511.487;200;11.58;41576.80
1737973511.537;200;11.58;41576.80
1737973511.586;200;11.73;42329.13
1737973511.637;200;11.54;41413.73
1737973511.687;200;11.54;41413.73
1737973511.737;200;11.54;41413.73
1737973511.788;200;11.46;40996.87
1737973511.838;200;10.41;35798.13
1737973511.888;200;10.41;35798.13
1737973511.941;200;10.41;35798.13
1737973511.988;200;11.71;42224.67
1737973512.038;200;11.78;42590.40
1737973512.088;200;11.78;42590.40
1737973512.138;200;11.78;42590.40
1737973512.188;200;12.15;44444.46
1737973523.119;200;10.89;38179.13
1737973523.169;200;10.89;38179.13
1737973523.220;200;10.89;38179.13
1737973523.269;200;10.47;36105.00
1737973523.321;200;10.47;36105.00
1737973523.371;200;10.47;36105.00
1737973523.420;200;10.74;37439.73
1737973523.470;200;10.93;38357.87
1737973523.521;200;10.93;38357.87
1737973523.570;200;10.93;38357.87
1737973523.621;200;10.42;35819.67
1737973523.671;200;10.95;38456.67
1737973523.721;200;10.95;38456.67
1737973523.771;200;10.95;38456.67
1737973523.821;200;10.59;36707.20
1737973523.871;200;12.70;47143.54
1737973523.920;200;12.70;47143.54
1737973523.971;200;12.70;47143.54
1737973524.021;200;11.93;43318.40
1737973524.070;200;11.03;38865.87
1737973524.121;200;11.03;38865.87
1737973524.171;200;11.03;38865.87
1737973524.222;200;12.03;43848.80
1737973524.271;200;11.46;41005.87
1737973524.321;200;11.46;41005.87
1737973524.372;200;11.86;42989.46
1737973524.421;200;10.42;35859.46
1737973524.471;200;11.72;42303.20
1737973524.522;200;11.72;42303.20
1737973524.572;200;11.14;39429.00
1737973524.622;200;10.87;38053.87
1737973524.672;200;10.57;36593.07
1737973524.723;200;10.57;36593.07
1737973524.772;200;11.12;39316.46
1737973524.872;200;10.58;36660.80
1737973524.922;200;10.58;36660.80
1737973524.972;200;11.15;39457.33
1737973525.023;200;12.33;45340.13
1737973525.072;200;11.53;41355.46
1737973525.122;200;11.53;41355.46
1737973525.173;200;11.11;39252.60
1737973525.223;200;11.61;41747.46
1737973525.273;200;11.52;41290.13
1737973525.323;200;11.52;41290.13
1737973525.373;200;12.31;45242.20
1737973525.423;200;12.44;45849.80
1737973525.473;200;12.44;45849.80
1737973525.523;200;12.44;45849.80
1737973525.573;200;11.17;39540.33
1737973525.623;200;11.55;41424.80
1737973525.673;200;11.18;39608.80
1737973525.723;200;11.18;39608.80
1737973525.774;200;11.18;39608.80
1737973525.823;200;10.28;35135.60
1737973525.873;200;11.75;42433.07
1737973525.924;200;11.75;42433.07
1737973525.973;200;11.75;42433.07
1737973526.023;200;10.88;38143.20
1737973526.074;200;11.17;39547.60
1737973526.124;200;11.17;39547.60
1737973526.173;200;11.17;39547.60
1737973526.224;200;11.94;43377.73
1737973526.274;200;11.11;39290.07
1737973526.323;200;11.11;39290.07
1737973526.374;200;11.11;39290.07
1737973526.423;200;10.83;37865.33
1737973526.474;200;11.84;42902.40
1737973526.524;200;11.84;42902.40
1737973526.574;200;11.84;42902.40
1737973526.625;200;10.92;38312.13
1737973526.675;200;11.47;41038.40
1737973526.725;200;11.47;41038.40
1737973526.775;200;11.47;41038.40
1737973526.825;200;10.90;38227.67
1737973526.876;200;11.67;42029.33
1737973526.926;200;11.67;42029.33
1737973526.975;200;11.67;42029.33
1737973527.026;200;10.50;36250.40
1737973527.076;200;11.93;43348.87
1737973527.126;200;11.93;43348.87
1737973527.176;200;11.67;42033.40
1737973527.226;200;12.29;45127.54
1737973527.275;200;12.42;45756.07
1737973527.326;200;12.42;45756.07
1737973527.376;200;11.23;39846.40
1737973527.427;200;11.43;40873.54
1737973527.477;200;11.17;39585.93
1737973527.527;200;11.17;39585.93
1737973527.578;200;11.36;40501.46
1737973527.628;200;12.44;45877.00
1737973653.593;75;40.00;37228.00
1737973653.644;75;40.00;37228.00
1737973653.694;75;40.00;37228.00
1737973653.745;82;40.00;41713.60
1737973653.794;82;40.00;41713.60
1737973653.844;82;40.00;41713.60
1737973653.895;88;40.00;46015.33
1737973653.945;72;40.00;35073.33
1737973653.994;72;40.00;35073.33
1737973654.044;72;40.00;35073.33
1737973654.095;83;40.00;42281.87
1737973654.145;81;40.00;41003.73
1737973654.194;82;40.00;41996.54
1737973654.245;82;40.00;41996.54
1737973654.295;81;40.00;41359.46
1737973654.345;87;40.00;45160.20
1737973654.395;72;40.00;35111.87
1737973654.445;72;40.00;35111.87
1737973654.495;72;40.00;35111.87
1737973654.545;87;40.00;45389.67
1737973654.745;73;40.00;35605.07
1737973654.945;72;40.00;35137.87
1737973654.994;75;40.00;37208.80
1737973655.045;75;40.00;37208.80
1737973655.094;73;40.00;36015.20
1737973655.195;72;40.00;34923.73
1737973655.246;72;40.00;34923.73
1737973655.296;84;40.00;43040.40
1737973655.346;86;40.00;44266.33
1737973655.397;86;40.00;44368.46
1737973655.449;86;40.00;44368.46
1737973655.699;74;40.00;36761.07
1737973655.748;74;40.00;36702.67
1737973655.798;74;40.00;36702.67
1737973655.849;74;40.00;36702.67
1737973655.898;74;40.00;36717.07
1737973655.948;80;40.00;40300.54
1737973655.998;80;40.00;40300.54
1737973656.048;80;40.00;40300.54
1737973656.098;78;40.00;39425.33
1737973656.148;76;40.00;37474.54
1737973656.198;76;40.00;37474.54
1737973656.248;76;40.00;37474.54
1737973656.299;72;40.00;35147.20
1737973656.349;75;40.00;37462.13
1737973656.398;75;40.00;37462.13
1737973656.449;75;40.00;37462.13
1737973656.504;85;40.00;43905.07
1737973656.551;83;40.00;42492.80
1737973656.601;73;40.00;35744.27
1737973656.651;73;40.00;35744.27
1737973656.702;73;40.00;35744.27
1737973656.801;86;40.00;44353.33
1737973656.852;86;40.00;44353.33
1737973656.901;87;40.00;45012.93
1737973656.951;74;40.00;36439.73
1737973657.151;72;40.00;35247.46
1737973657.202;73;40.00;35467.87
1737973657.252;73;40.00;35467.87
1737973657.302;73;40.00;35467.87
1737973657.353;72;40.00;34918.54
1737973657.402;79;40.00;39582.67
1737973657.453;79;40.00;39582.67
1737973657.504;79;40.00;40085.33
1737973657.554;82;40.00;41687.46
1737973657.604;73;40.00;35535.46
1737973657.654;73;40.00;35535.46
1737973657.705;73;40.00;35535.46
1737973657.756;85;40.00;43735.20
1737973657.806;84;40.00;42970.80
1737973657.856;84;40.00;42970.80
1737973657.906;81;40.00;41317.60
1737973657.956;77;40.00;38338.67
1737973658.006;72;40.00;35195.40
1737973658.056;72;40.00;35195.40
1737973658.106;72;40.00;34877.67
1737973658.156;79;40.00;39719.13
1737973669.127;75;40.00;37064.93
1737973669.178;75;40.00;37064.93
1737973669.227;75;40.00;37064.93
1737973669.277;82;40.00;41689.87
1737973669.328;82;40.00;41689.87
1737973669.378;82;40.00;41689.87
1737973669.428;87;40.00;44946.54
1737973669.478;83;40.00;42407.46
1737973669.528;83;40.00;42407.46
1737973669.578;83;40.00;42407.46
1737973669.629;74;40.00;36664.27
1737973669.678;76;40.00;37708.07
1737973669.729;74;40.00;36471.93
1737973669.780;74;40.00;36471.93
1737973669.829;76;40.00;37520.40
1737973669.880;79;40.00;39610.93
1737973669.929;79;40.00;39610.93
1737973669.980;79;40.00;39610.93
1737973670.030;84;40.00;43200.27
1737973670.080;84;40.00;43509.46
1737973670.129;84;40.00;43509.46
1737973670.180;84;40.00;43509.46
1737973670.230;72;40.00;35091.80
1737973670.279;81;40.00;41248.40
1737973670.331;82;40.00;41814.93
1737973670.381;82;40.00;41814.93
1737973670.432;82;40.00;41814.93
1737973670.482;74;40.00;36746.67
1737973670.532;78;40.00;39477.87
1737973670.581;78;40.00;39477.87
1737973670.631;78;40.00;39477.87
1737973670.682;83;40.00;42381.46
1737973670.732;89;40.00;46381.27
1737973670.782;89;40.00;46381.27
1737973670.832;73;40.00;35651.80
1737973670.882;75;40.00;36874.93
1737973670.932;75;40.00;36874.93
1737973670.982;75;40.00;36874.93
1737973671.032;72;40.00;35072.67
1737973671.084;84;40.00;43115.13
1737973671.134;84;40.00;43115.13
1737973671.184;84;40.00;43115.13
1737973671.234;79;40.00;39758.07
1737973671.283;79;40.00;39758.07
1737973671.333;79;40.00;39758.07
1737973671.383;84;40.00;43132.40
1737973671.433;76;40.00;37513.40
1737973671.484;76;40.00;37513.40
1737973671.535;76;40.00;37513.40
1737973671.585;86;40.00;44823.46
1737973671.634;86;40.00;44823.46
1737973671.686;86;40.00;44823.46
1737973671.735;86;40.00;44342.13
1737973671.786;86;40.00;44342.13
1737973671.835;86;40.00;44342.13
1737973671.885;80;40.00;40650.33
1737973671.936;80;40.00;40650.33
1737973671.986;80;40.00;40650.33
1737973672.036;80;40.00;40650.33
1737973672.086;85;40.00;44082.07
1737973672.136;84;40.00;43070.67
1737973672.187;84;40.00;43070.67
1737973672.237;84;40.00;43070.67
1737973672.288;86;40.00;44594.54
1737973672.337;76;40.00;37601.00
1737973672.387;76;40.00;37601.00
1737973672.437;76;40.00;37601.00
1737973672.487;77;40.00;38694.00
1737973672.538;77;40.00;38694.00
1737973672.587;77;40.00;38694.00
1737973672.687;79;40.00;39741.60
1737973672.737;79;40.00;39741.60
1737973672.787;79;40.00;39741.60
1737973672.837;82;40.00;41908.80
1737973672.887;83;40.00;42227.27
1737973672.937;83;40.00;42227.27
1737973672.988;82;40.00;42003.80
1737973673.038;72;40.00;34994.93
1737973673.087;72;40.00;34994.93
1737973673.139;72;40.00;34994.93
1737973673.189;72;40.00;35133.54
1737973683.335;75;40.00;37061.46
1737973683.385;75;40.00;37061.46
1737973683.435;75;40.00;37061.46
1737973683.485;77;40.00;38287.20
1737973683.535;77;40.00;38287.20
1737973683.585;77;40.00;38287.20
1737973683.685;74;40.00;36712.54
1737973683.735;74;40.00;36712.54
1737973683.785;77;40.00;38745.87
1737973683.836;83;40.00;42621.67
1737973683.885;83;40.00;42621.67
1737973683.936;72;40.00;35391.20
1737973683.986;73;40.00;35986.07
1737973684.036;73;40.00;35986.07
1737973684.086;73;40.00;35986.07
1737973684.136;83;40.00;42616.87
1737973684.186;83;40.00;42590.73
1737973684.236;83;40.00;42590.73
1737973684.286;83;40.00;42590.73
1737973684.337;72;40.00;35386.40
1737973684.387;87;40.00;44917.46
1737973684.437;87;40.00;44917.46
1737973684.487;87;40.00;44917.46
1737973684.537;80;40.00;40683.73
1737973684.587;86;40.00;44596.60
1737973684.638;86;40.00;44596.60
1737973684.687;86;40.00;44596.60
1737973684.738;82;40.00;42106.40
1737973684.788;79;40.00;39847.73
1737973684.838;79;40.00;39847.73
1737973684.888;80;40.00;40385.33
1737973684.937;80;40.00;40363.46
1737973684.987;80;40.00;40363.46
1737973685.037;74;40.00;36244.80
1737973685.088;74;40.00;36682.40
1737973685.138;74;40.00;36682.40
1737973685.188;74;40.00;36682.40
1737973685.238;81;40.00;40832.80
1737973685.288;79;40.00;40137.33
1737973685.338;79;40.00;40137.33
1737973685.388;78;40.00;39097.87
1737973685.588;85;40.00;43580.87
1737973685.639;74;40.00;36567.87
1737973685.688;74;40.00;36567.87
1737973685.739;74;40.00;36567.87
1737973685.789;84;40.00;42973.07
1737973685.838;81;40.00;41033.27
1737973685.889;81;40.00;41033.27
1737973685.939;81;40.00;41033.27
1737973685.989;88;40.00;45683.73
1737973686.039;79;40.00;39817.07
1737973686.089;79;40.00;39817.07
1737973686.189;84;40.00;43242.13
1737973686.239;84;40.00;43242.13
1737973686.290;84;40.00;43242.13
1737973686.339;88;40.00;46011.40
1737973686.389;82;40.00;41938.80
1737973686.441;82;40.00;41938.80
1737973686.491;82;40.00;41938.80
1737973686.540;73;40.00;35728.87
1737973686.590;73;40.00;35728.87
1737973686.640;73;40.00;35728.87
1737973686.690;84;40.00;43355.13
1737973686.741;74;40.00;36456.27
1737973686.790;74;40.00;36456.27
1737973686.840;74;40.00;36456.27
1737973686.891;76;40.00;37701.33
1737973686.941;84;40.00;43182.27
1737973686.991;84;40.00;43182.27
1737973687.041;84;40.00;43182.27
1737973687.091;79;40.00;39906.07
1737973687.141;84;40.00;43298.27
1737973687.190;84;40.00;43298.27
1737973687.241;84;40.00;43298.27
1737973687.291;84;40.00;43408.27
1737973687.441;83;40.00;42442.40
1737973687.491;77;40.00;38741.00
1737973687.541;77;40.00;38741.00
1737973687.592;77;40.00;38741.00
1737973687.641;82;40.00;41966.20
1737973687.691;84;40.00;43255.87
1737973687.741;84;40.00;43255.87
1737973687.792;84;40.00;43255.87
1737973687.842;85;40.00;43806.20
1737973808.826;50;10.67;37092.27
1737973808.875;50;10.89;38173.00
1737973808.926;50;10.89;38173.00
1737973808.976;50;11.18;39625.60
1737973809.025;50;10.83;37876.60
1737973809.076;50;11.23;39840.33
1737973809.126;50;11.23;39840.33
1737973809.176;50;10.63;36906.93
1737973809.226;50;10.56;36537.07
1737973809.276;50;10.59;36684.54
1737973809.326;50;10.59;36684.54
1737973809.375;50;10.52;36340.27
1737973809.426;50;10.49;36193.33
1737973809.476;50;10.49;36193.33
1737973809.526;50;10.49;36193.33
1737973809.575;50;10.57;36587.46
1737973809.627;50;11.99;43634.93
1737973809.677;50;11.99;43634.93
1737973809.727;50;11.40;40710.07
1737973809.777;50;10.27;35077.87
1737973809.827;50;10.27;35077.87
1737973809.877;50;10.27;35077.87
1737973809.928;50;10.45;36008.40
1737973809.978;50;11.08;39096.40
1737973810.027;50;11.08;39096.40
1737973810.078;50;11.08;39096.40
1737973810.128;50;10.35;35505.60
1737973810.178;50;11.13;39359.87
1737973810.228;50;11.13;39359.87
1737973810.278;50;11.13;39359.87
1737973810.328;50;10.93;38376.27
1737973810.378;50;11.06;39001.87
1737973810.428;50;11.06;39001.87
1737973810.478;50;11.06;39001.87
1737973810.529;50;11.25;39976.00
1737973810.578;50;10.71;37276.00
1737973810.629;50;10.71;37276.00
1737973810.678;50;10.71;37276.00
1737973810.729;50;10.71;37276.00
1737973810.779;50;10.32;35370.40
1737973810.829;50;10.32;35370.40
1737973810.879;50;10.32;35370.40
1737973810.929;50;10.32;35370.40
1737973810.979;50;10.54;36415.67
1737973811.029;50;10.54;36415.67
1737973811.079;50;10.54;36415.67
1737973811.129;50;11.65;41968.20
1737973811.178;50;11.38;40615.46
1737973811.229;50;10.55;36464.54
1737973811.279;50;10.55;36464.54
1737973811.329;50;10.55;36464.54
1737973811.379;50;10.28;35163.33
1737973811.429;50;10.28;35163.33
1737973811.479;50;10.28;35163.33
1737973811.529;50;10.28;35163.33
1737973811.579;50;10.34;35433.46
1737973811.629;50;10.34;35433.46
1737973811.679;50;10.34;35433.46
1737973811.729;50;10.34;35433.46
1737973811.779;50;10.68;37133.20
1737973811.830;50;10.68;37133.20
1737973811.879;50;10.68;37133.20
1737973811.931;50;11.79;42661.93
1737973811.980;50;10.68;37118.54
1737973812.030;50;10.68;37118.54
1737973812.082;50;10.68;37118.54
1737973812.131;50;11.73;42352.67
1737973823.409;50;11.62;41774.40
1737973823.459;50;11.62;41774.40
1737973823.508;50;11.62;41774.40
1737973823.558;50;10.77;37571.87
1737973823.608;50;11.88;43072.33
1737973823.659;50;11.88;43072.33
1737973823.709;50;11.88;43072.33
1737973823.759;50;11.27;40036.80
1737973823.809;50;11.51;41271.60
1737973823.859;50;11.51;41271.60
1737973823.909;50;11.51;41271.60
1737973823.959;50;10.85;37998.40
1737973824.009;50;10.77;37596.27
1737973824.059;50;10.77;37596.27
1737973824.109;50;10.77;37596.27
1737973824.159;50;10.34;35426.33
1737973824.209;50;11.54;41397.46
1737973824.259;50;11.54;41397.46
1737973824.310;50;11.54;41397.46
1737973824.360;50;11.72;42292.33
1737973824.409;50;10.76;37519.73
1737973824.460;50;10.76;37519.73
1737973824.510;50;10.76;37519.73
1737973824.560;50;10.82;37831.73
1737973824.610;50;10.61;36777.87
1737973824.660;50;10.61;36777.87
1737973824.711;50;10.61;36777.87
1737973824.761;50;10.26;35062.40
1737973824.811;50;11.97;43512.07
1737973824.861;50;11.97;43512.07
1737973824.917;50;11.97;43512.07
1737973824.965;50;12.03;43835.40
1737973825.015;50;10.69;37189.87
1737973825.064;50;10.69;37189.87
1737973825.116;50;10.69;37189.87
1737973825.165;50;11.77;42534.87
1737973825.215;50;12.09;44144.27
1737973825.266;50;12.09;44144.27
1737973825.316;50;12.09;44144.27
1737973825.365;50;10.34;35454.27
1737973825.415;50;10.98;38615.00
1737973825.465;50;10.98;38615.00
1737973825.515;50;11.00;38729.67
1737973825.615;50;10.71;37292.87
1737973825.666;50;10.71;37292.87
1737973825.716;50;10.71;37292.87
1737973825.766;50;10.84;37949.46
1737973825.816;50;11.44;40899.07
1737973825.866;50;11.44;40899.07
1737973825.916;50;11.44;40899.07
1737973826.016;50;11.84;42911.60
1737973826.067;50;11.84;42911.60
1737973826.117;50;11.84;42911.60
1737973826.168;50;10.77;37585.00
1737973826.218;50;11.74;42393.40
1737973826.267;50;11.74;42393.40
1737973826.318;50;11.74;42393.40
1737973826.367;50;10.45;35976.27
1737973826.417;50;10.67;37099.46
1737973826.467;50;10.67;37099.46
1737973826.518;50;10.67;37084.54
1737973826.567;50;10.80;37706.13
1737973826.618;50;11.12;39333.00
1737973826.668;50;11.12;39333.00
1737973826.717;50;11.12;39333.00
1737973826.768;50;12.23;44822.60
1737973826.818;50;11.69;42147.27
1737973826.868;50;11.69;42147.27
1737973826.918;50;11.69;42147.27
1737973826.968;50;11.86;42980.93
1737973827.018;50;11.83;42850.80
1737973827.068;50;11.83;42850.80
1737973827.120;50;11.83;42850.80
1737973827.170;50;10.48;36123.46
1737973827.220;50;10.37;35574.27
1737973827.270;50;10.37;35574.27
1737973827.320;50;10.37;35574.27
1737973827.370;50;11.94;43396.40
1737973827.419;50;12.19;44633.33
1737973827.470;50;12.19;44633.33
1737973827.520;50;12.19;44633.33
1737973827.571;50;11.87;43045.87
1737973827.621;50;11.70;42169.07
1737973827.671;50;11.70;42169.07
1737973827.720;50;11.70;42169.07
1737973827.770;50;10.88;38113.07
1737973839.419;50;11.00;38725.60
1737973839.470;50;11.00;38725.60
1737973839.520;50;11.00;38725.60
1737973839.621;50;10.33;35381.87
1737973839.671;50;10.33;35381.87
1737973839.720;50;10.33;35381.87
1737973839.770;50;10.29;35190.54
1737973839.820;50;10.95;38485.07
1737973839.871;50;10.95;38485.07
1737973839.921;50;10.95;38485.07
1737973839.971;50;10.80;37741.87
1737973840.021;50;11.02;38816.00
1737973840.072;50;11.02;38816.00
1737973840.122;50;11.02;38816.00
1737973840.171;50;12.27;45035.93
1737973840.221;50;11.07;39087.80
1737973840.272;50;11.65;41928.54
1737973840.322;50;11.65;41928.54
1737973840.371;50;11.65;41928.54
1737973840.421;50;10.63;36906.80
1737973840.471;50;10.63;36906.80
1737973840.521;50;10.63;36906.80
1737973840.572;50;10.44;35959.13
1737973840.622;50;12.16;44474.67
1737973840.672;50;12.16;44474.67
1737973840.722;50;12.16;44474.67
1737973840.773;50;11.18;39596.00
1737973840.822;50;10.83;37877.87
1737973840.872;50;10.83;37877.87
1737973840.922;50;10.83;37877.87
1737973840.976;50;11.39;40667.46
1737973841.023;50;10.58;36618.80
1737973841.073;50;10.58;36618.80
1737973841.125;50;10.58;36618.80
1737973841.176;50;11.51;41263.40
1737973841.225;50;10.87;38059.20
1737973841.275;50;10.87;38059.20
1737973841.326;50;10.87;38059.20
1737973841.375;50;11.48;41116.27
1737973841.426;50;10.98;38633.73
1737973841.476;50;10.98;38633.73
1737973841.525;50;10.98;38633.73
1737973841.576;50;12.30;45174.67
1737973841.626;50;11.62;41815.67
1737973841.676;50;11.62;41815.67
1737973841.726;50;11.62;41815.67
1737973841.776;50;11.26;40008.93
1737973841.826;50;10.72;37345.73
1737973841.876;50;10.72;37345.73
1737973841.926;50;10.72;37345.73
1737973841.976;50;12.07;44048.07
1737973842.027;50;12.12;44296.80
1737973842.077;50;12.12;44296.80
1737973842.127;50;12.12;44296.80
1737973842.176;50;12.06;43983.00
1737973842.227;50;10.94;38407.73
1737973842.277;50;10.94;38407.73
1737973842.328;50;10.94;38407.73
1737973842.377;50;11.42;40782.60
1737973842.428;50;10.62;36812.13
1737973842.479;50;10.62;36812.13
1737973842.529;50;10.62;36812.13
1737973842.579;50;10.66;37032.93
1737973842.628;50;11.21;39776.80
1737973842.679;50;11.21;39776.80
1737973842.729;50;11.21;39776.80
1737973842.778;50;11.55;41469.46
1737973842.828;50;12.32;45270.27
1737973842.879;50;12.32;45270.27
1737973842.929;50;12.32;45270.27
1737973842.979;50;10.78;37647.46
1737973843.029;50;11.92;43292.60
1737973843.079;50;11.92;43292.60
1737973843.129;50;11.92;43292.60
1737973843.180;50;11.42;40785.20
1737973843.229;50;11.35;40432.27
1737973843.280;50;11.35;40432.27
1737973843.329;50;11.35;40432.27
1737973843.379;50;11.05;38969.07
1737973843.429;50;11.87;43051.27
1737973843.479;50;11.87;43051.27
1737973843.529;50;12.19;44639.00
1737973843.579;50;11.10;39236.27
1737973843.629;50;10.71;37263.46
1737973843.679;50;10.71;37263.46
1737973843.730;50;10.71;37263.46
1737973843.780;50;12.36;45451.07
1737973979.345;500;10.86;38007.73
1737973979.395;500;10.86;38007.73
1737973979.446;500;10.48;36122.80
1737973979.496;500;11.62;41795.00
1737973979.545;500;11.62;41795.00
1737973979.595;500;11.04;38938.93
1737973979.645;500;12.05;43938.13
1737973979.695;500;11.25;39976.07
1737973979.746;500;11.25;39976.07
1737973979.795;500;11.25;39976.07
1737973979.846;500;11.51;41253.60
1737973979.896;500;12.27;45005.87
1737973979.945;500;12.27;45005.87
1737973979.995;500;12.27;45005.87
1737973980.047;500;11.04;38902.40
1737973980.096;500;11.75;42441.46
1737973980.147;500;11.75;42441.46
1737973980.197;500;11.75;42441.46
1737973980.247;500;10.72;37320.80
1737973980.298;500;10.79;37663.20
1737973980.348;500;10.79;37663.20
1737973980.398;500;10.79;37663.20
1737973980.448;500;12.34;45382.60
1737973980.498;500;11.40;40720.54
1737973980.548;500;11.40;40720.54
1737973980.599;500;11.40;40720.54
1737973980.648;500;10.54;36427.93
1737973980.698;500;10.54;36427.93
1737973980.749;500;10.54;36427.93
1737973980.799;500;10.64;36943.46
1737973980.849;500;11.64;41874.40
1737973980.900;500;11.64;41874.40
1737973980.949;500;11.64;41874.40
1737973980.999;500;11.13;39357.33
1737973981.049;500;11.71;42235.33
1737973981.100;500;11.71;42235.33
1737973981.149;500;11.71;42235.33
1737973981.200;500;11.82;42778.67
1737973981.250;500;11.54;41392.93
1737973981.299;500;11.54;41392.93
1737973981.349;500;11.54;41392.93
1737973981.399;500;11.54;41407.33
1737973981.451;500;11.48;41113.87
1737973981.502;500;11.48;41113.87
1737973981.552;500;11.48;41113.87
1737973981.602;500;11.78;42577.27
1737973981.651;500;11.34;40421.07
1737973981.702;500;11.57;41526.13
1737973981.751;500;11.57;41526.13
1737973981.802;500;11.57;41526.13
1737973981.852;500;11.38;40583.67
1737973981.903;500;11.08;39098.40
1737973981.952;500;11.08;39098.40
1737973982.002;500;11.08;39098.40
1737973982.052;500;11.08;39098.40
1737973982.102;500;11.03;38853.54
1737973982.153;500;12.32;45267.46
1737973982.203;500;12.32;45267.46
1737973982.252;500;12.32;45267.46
1737973982.304;500;10.82;37803.54
1737973982.353;500;10.82;37803.54
1737973982.404;500;10.82;37803.54
1737973982.455;500;12.17;44536.67
1737973982.505;500;10.35;35478.40
1737973982.554;500;10.35;35478.40
1737973982.604;500;10.35;35478.40
1737973982.655;500;11.91;43234.33
1737973982.705;500;12.46;45941.46
1737973982.755;500;12.46;45941.46
1737973982.805;500;11.05;38952.60
1737973982.855;500;12.37;45512.46
1737973982.904;500;11.14;39402.07
1737973982.954;500;11.14;39402.07
1737973983.005;500;10.51;36306.80
1737973983.054;500;12.22;44782.46
1737973983.105;500;12.22;44782.46
1737973983.155;500;12.22;44782.46
1737973983.206;500;12.18;44591.60
1737973983.256;500;11.27;40057.33
1737973983.306;500;11.27;40057.33
1737973983.355;500;11.27;40057.33
1737973983.406;500;11.36;40499.60
1737973983.455;500;12.42;45771.27
1737973983.506;500;12.42;45771.27
1737973983.555;500;12.42;45771.27
1737973983.607;500;11.72;42276.27
1737973983.657;500;12.05;43916.73
1737973983.706;500;12.05;43916.73
1737973983.756;500;12.05;43916.73
1737973983.807;500;10.35;35491.20
1737973983.856;500;12.15;44401.80
1737973983.907;500;12.15;44401.80
1737973983.956;500;12.15;44401.80
1737973984.006;500;12.26;44963.87
1737973994.736;500;10.88;38106.40
1737973994.786;500;11.41;40748.40
1737973994.836;500;11.41;40748.40
1737973994.885;500;11.37;40565.73
1737973994.936;500;11.88;43071.13
1737973994.987;500;11.88;43071.13
1737973995.037;500;12.60;46644.07
1737973995.087;500;11.78;42597.20
1737973995.138;500;11.78;42597.20
1737973995.188;500;11.78;42597.20
1737973995.238;500;12.11;44205.54
1737973995.288;500;12.37;45499.93
1737973995.338;500;12.37;45499.93
1737973995.388;500;12.37;45499.93
1737973995.438;500;10.93;38368.73
1737973995.488;500;10.55;36484.27
1737973995.538;500;10.55;36484.27
1737973995.588;500;12.46;45942.54
1737973995.638;500;11.79;42648.54
1737973995.688;500;11.79;42648.54
1737973995.738;500;11.79;42648.54
1737973995.789;500;10.55;36484.80
1737973995.839;500;11.46;40977.40
1737973995.889;500;11.46;40977.40
1737973995.939;500;11.46;40977.40
1737973995.989;500;10.62;36811.87
1737973996.039;500;11.17;39563.46
1737973996.089;500;11.17;39563.46
1737973996.140;500;11.17;39563.46
1737973996.189;500;10.66;37051.87
1737973996.239;500;10.66;37051.87
1737973996.290;500;10.66;37051.87
1737973996.339;500;11.52;41317.87
1737973996.390;500;12.32;45261.20
1737973996.441;500;12.32;45261.20
1737973996.491;500;11.91;43212.33
1737973996.540;500;10.42;35831.07
1737973996.591;500;11.87;43011.87
1737973996.641;500;11.87;43011.87
1737973996.690;500;11.72;42309.73
1737973996.742;500;10.69;37176.54
1737973996.792;500;10.41;35774.80
1737973996.842;500;10.41;35774.80
1737973996.891;500;12.13;44339.46
1737973996.942;500;11.41;40777.93
1737973996.991;500;10.67;37064.13
1737973997.041;500;10.67;37064.13
1737973997.091;500;10.83;37869.46
1737973997.142;500;10.81;37758.93
1737973997.191;500;11.80;42707.73
1737973997.242;500;11.80;42707.73
1737973997.292;500;11.80;42707.73
1737973997.342;500;11.56;41509.07
1737973997.392;500;11.66;41970.93
1737973997.442;500;11.66;41970.93
1737973997.491;500;11.66;41970.93
1737973997.543;500;11.78;42600.20
1737973997.593;500;12.43;45792.07
1737973997.643;500;12.43;45792.07
1737973997.692;500;12.43;45792.07
1737973997.743;500;12.02;43762.40
1737973997.793;500;11.43;40862.80
1737973997.843;500;11.43;40862.80
1737973997.893;500;12.35;45433.13
1737973997.943;500;12.38;45587.93
1737973997.993;500;12.41;45730.54
1737973998.043;500;12.41;45730.54
1737973998.094;500;12.08;44082.20
1737973998.143;500;12.04;43870.67
1737973998.193;500;10.93;38355.07
1737973998.244;500;10.93;38355.07
1737973998.294;500;10.93;38355.07
1737973998.344;500;11.47;41071.27
1737973998.394;500;10.58;36613.87
1737973998.444;500;10.58;36613.87
1737973998.494;500;10.58;36613.87
1737973998.544;500;12.29;45102.46
1737973998.594;500;12.12;44274.73
1737973998.644;500;12.12;44274.73
1737973998.694;500;12.12;44274.73
1737973998.744;500;12.41;45728.13
1737973998.794;500;11.81;42751.46
1737973998.845;500;11.81;42751.46
1737973998.894;500;11.81;42751.46
1737973998.944;500;10.84;37949.33
1737974010.374;500;10.79;37695.27
1737974010.424;500;10.79;37695.27
1737974010.475;500;10.79;37695.27
1737974010.524;500;10.70;37241.87
1737974010.574;500;10.70;37241.87
1737974010.625;500;10.70;37241.87
1737974010.675;500;12.40;45656.80
1737974010.726;500;12.40;45656.80
1737974010.776;500;12.40;45656.80
1737974010.825;500;11.82;42805.33
1737974010.876;500;11.82;42805.33
1737974010.927;500;11.82;42805.33
1737974010.977;500;12.07;44026.60
1737974011.026;500;11.91;43222.54
1737974011.076;500;11.91;43222.54
1737974011.126;500;12.55;46431.60
1737974011.177;500;12.22;44760.67
1737974011.227;500;12.23;44803.60
1737974011.277;500;12.23;44803.60
1737974011.327;500;11.55;41450.00
1737974011.377;500;12.09;44143.40
1737974011.427;500;12.09;44143.40
1737974011.477;500;12.09;44143.40
1737974011.528;500;11.37;40544.27
1737974011.578;500;11.76;42469.27
1737974011.628;500;11.76;42469.27
1737974011.678;500;11.76;42469.27
1737974011.728;500;11.68;42115.07
1737974011.778;500;11.37;40549.87
1737974011.828;500;11.37;40549.87
1737974011.878;500;11.37;40549.87
1737974011.928;500;11.58;41614.33
1737974011.978;500;11.92;43270.27
1737974012.028;500;11.92;43270.27
1737974012.078;500;11.92;43270.27
1737974012.135;500;11.39;40665.07
1737974012.178;500;12.36;45490.33
1737974012.228;500;11.77;42542.73
1737974012.278;500;11.77;42542.73
1737974012.328;500;12.14;44392.80
1737974012.378;500;12.14;44363.60
1737974012.428;500;10.90;38206.93
1737974012.478;500;10.90;38206.93
1737974012.528;500;10.90;38206.93
1737974012.579;500;11.28;40093.87
1737974012.629;500;12.36;45481.20
1737974012.679;500;12.36;45481.20
1737974012.729;500;12.36;45481.20
1737974012.779;500;11.53;41368.54
1737974012.829;500;11.49;41158.13
1737974012.879;500;11.49;41158.13
1737974012.929;500;10.98;38613.60
1737974012.979;500;11.49;41150.67
1737974013.029;500;11.06;39003.07
1737974013.079;500;11.06;39003.07
1737974013.129;500;11.06;39003.07
1737974013.180;500;12.24;44874.00
1737974013.229;500;11.65;41957.87
1737974013.280;500;11.65;41957.87
1737974013.329;500;11.65;41957.87
1737974013.380;500;11.51;41236.87
1737974013.429;500;12.19;44646.46
1737974013.480;500;12.19;44646.46
1737974013.529;500;12.19;44646.46
1737974013.579;500;11.68;42099.93
1737974013.630;500;11.02;38810.13
1737974013.680;500;11.02;38810.13
1737974013.730;500;11.14;39434.67
1737974013.779;500;11.58;41574.40
1737974013.830;500;10.94;38441.87
1737974013.880;500;10.94;38441.87
1737974013.930;500;11.02;38808.80
1737974013.979;500;10.54;36429.07
1737974014.030;500;11.09;39183.87
1737974014.080;500;11.09;39183.87
1737974014.130;500;11.09;39183.87
1737974014.180;500;11.71;42218.93
1737974014.230;500;11.71;42218.93
1737974014.280;500;11.71;42218.93
1737974014.330;500;11.71;42218.93
1737974014.380;500;11.28;40115.93
