UnixTimestamp;Microseconds;MilliAmpere;BaseValue
1725973620.884;500;1.00
1725973620.931;500;1.00
1725973620.982;500;1.00
1725973621.032;500;1.00
1725973621.082;500;1.00
1725973621.132;500;1.00
1725973621.182;500;1.00
1725973621.232;500;1.00
1725973621.282;500;1.00
1725973621.332;500;1.00
1725973621.383;500;1.00
1725973621.432;500;1.00
1725973621.483;500;1.00
1725973621.532;500;1.00
1725973621.582;500;1.00
1725973621.633;500;1.00
1725973621.684;500;1.00
1725973621.734;500;1.00
1725973621.784;500;1.00
1725973621.834;500;1.00
1725973625.273;1;40.00
1725973625.326;1;40.00
1725973625.376;1;40.00
1725973625.426;1;40.00
1725973625.476;1;40.00
1725973625.526;1;40.00
1725973625.576;1;40.00
1725973625.626;1;40.00
1725973625.677;1;40.00
1725973625.726;1;40.00
1725973625.776;1;40.00
1725973625.827;1;40.00
1725973625.878;1;40.00
1725973625.928;1;40.00
1725973625.977;1;40.00
1725973626.027;1;40.00
1725973626.077;1;40.00
1725973626.127;1;40.00
1725973626.177;1;40.00
1725973790.809;500;24.29;35585.20
1725973790.858;500;24.29;35585.20
1725973790.909;500;24.89;36487.60
1725973790.959;500;27.51;40400.13
1725973791.010;500;27.51;40400.13
1725973791.060;500;27.51;40400.13
1725973791.111;500;26.52;38921.60
1725973791.161;500;28.21;41447.93
1725973791.211;500;28.21;41447.93
1725973791.261;500;28.21;41447.93
1725973791.311;500;24.69;36191.07
1725973791.447;500;24.69;36191.07
1725973791.448;500;24.69;36191.07
1725973791.461;500;24.69;36191.07
1725973791.511;500;27.71;40695.46
1725973791.564;500;27.71;40695.46
1725973791.612;500;26.72;39224.27
1725973791.662;500;26.72;39224.27
1725973791.711;500;24.93;36549.20
1725973791.762;500;28.64;42093.00
1725973791.811;500;28.13;41325.33
1725973791.861;500;28.13;41325.33
1725973791.911;500;28.13;41325.33
1725973791.961;500;28.04;41201.27
1725973792.012;500;28.83;42381.54
1725973792.062;500;28.83;42381.54
1725973792.112;500;28.83;42381.54
1725973792.163;500;28.07;41238.93
1725973792.213;500;29.20;42934.60
1725973792.264;500;29.20;42934.60
1725973792.313;500;25.07;36761.87
1725973792.364;500;27.69;40670.54
1725973792.413;500;27.69;40670.54
1725973792.463;500;27.69;40670.54
1725973792.515;500;25.98;38115.40
1725973792.565;500;27.24;39996.67
1725973792.614;500;27.24;39996.67
1725973792.665;500;27.24;39996.67
1725973792.714;500;27.24;39996.67
1725973793.062;500;27.24;39996.67
1725973793.062;500;27.24;39996.67
1725973793.063;500;27.24;39996.67
1725973793.063;500;27.24;39996.67
1725973793.063;500;27.24;39996.67
1725973793.063;500;27.24;39996.67
1725973793.066;500;27.24;39996.67
1725973793.116;500;27.62;40569.93
1725973793.165;500;27.95;41066.54
1725973793.215;500;27.95;41066.54
1725973793.265;500;27.82;40873.13
1725973793.316;500;25.98;38121.07
1725973793.366;500;26.44;38799.80
1725973793.416;500;26.12;38324.13
1725973793.466;500;25.93;38040.54
1725973793.516;500;25.93;38040.54
1725973793.566;500;25.93;38040.54
1725973793.615;500;27.45;40318.46
1725973793.666;500;29.13;42818.80
1725973793.716;500;29.19;42910.60
1725973793.766;500;29.19;42910.60
1725973793.816;500;25.06;36747.20
1725973793.866;500;24.36;35702.87
1725973793.916;500;24.79;36334.20
1725973793.966;500;24.79;36334.20
1725973794.016;500;27.81;40847.87
1725973794.066;500;24.85;36430.93
1725973794.116;500;26.70;39197.07
1725973794.166;500;26.70;39197.07
1725973794.217;500;28.01;41153.60
1725973794.266;500;28.00;41133.27
1725973794.317;500;28.00;41133.27
1725973794.367;500;28.00;41133.27
1725973794.417;500;25.05;36734.20
1725973794.467;500;27.88;40957.46
1725973794.517;500;27.88;40957.46
1725973794.567;500;27.88;40957.46
1725973794.617;500;26.54;38946.27
1725973794.667;500;25.89;37989.20
1725973794.717;500;25.89;37989.20
1725973794.767;500;25.89;37989.20
1725973794.817;500;27.85;40910.54
1725973794.867;500;28.06;41223.60
1725973794.917;500;28.33;41634.13
1725973794.967;500;28.33;41634.13
1725973795.017;500;28.53;41923.80
1725973795.066;500;29.18;42890.87
1725973795.117;500;29.18;42890.87
1725973795.167;500;29.18;42890.87
1725973795.217;500;27.67;40639.13
1725973795.267;500;26.28;38571.46
1725973795.317;500;26.28;38571.46
1725973795.367;500;26.28;38571.46
1725973795.417;500;24.67;36163.33
1725973795.467;500;24.67;36163.33
1725973795.517;500;25.21;36961.46
1725973795.567;500;27.43;40288.27
1725973795.717;500;28.55;41958.54
1725973795.917;500;28.69;42161.27
1725973796.017;500;26.27;38548.80
1725973796.067;500;26.27;38548.80
1725973796.117;500;24.95;36573.20
1725973807.532;500;25.60;37552.46
1725973807.582;500;25.60;37552.46
1725973807.632;500;25.60;37552.46
1725973807.682;500;25.21;36961.46
1725973807.782;500;27.16;39879.87
1725973807.832;500;27.16;39879.87
1725973807.882;500;27.16;39879.87
1725973807.933;500;27.99;41123.13
1725973807.983;500;27.87;40936.80
1725973808.034;500;27.87;40936.80
1725973808.083;500;27.87;40936.80
1725973808.134;500;25.97;38102.00
1725973808.184;500;26.01;38158.27
1725973808.234;500;26.01;38158.27
1725973808.283;500;27.23;39991.33
1725973808.334;500;28.80;42324.07
1725973808.384;500;28.80;42324.07
1725973808.434;500;28.80;42324.07
1725973808.484;500;25.73;37741.20
1725973808.534;500;25.63;37596.40
1725973808.584;500;25.63;37596.40
1725973808.634;500;25.42;37279.46
1725973808.685;500;29.22;42964.67
1725973808.736;500;29.22;42964.67
1725973808.786;500;29.22;42964.67
1725973808.835;500;28.22;41464.87
1725973808.886;500;28.08;41257.87
1725973808.935;500;28.08;41257.87
1725973808.987;500;28.08;41257.87
1725973809.037;500;28.80;42333.00
1725973809.148;500;28.80;42333.00
1725973809.148;500;28.80;42333.00
1725973809.187;500;27.00;39639.07
1725973809.237;500;28.33;41625.13
1725973809.286;500;28.33;41625.13
1725973809.337;500;24.75;36277.40
1725973809.387;500;29.63;43568.54
1725973809.438;500;28.08;41253.73
1725973809.489;500;28.08;41253.73
1725973809.538;500;23.88;34973.07
1725973809.588;500;28.14;41339.93
1725973809.638;500;27.80;40838.54
1725973809.688;500;27.80;40838.54
1725973809.738;500;26.23;38494.87
1725973809.788;500;27.43;40276.27
1725973809.838;500;28.90;42484.27
1725973809.888;500;28.90;42484.27
1725973809.938;500;28.90;42484.27
1725973809.989;500;25.31;37114.00
1725973810.039;500;28.45;41801.13
1725973810.089;500;28.45;41801.13
1725973810.138;500;28.45;41801.13
1725973810.189;500;26.69;39171.93
1725973810.239;500;26.69;39171.93
1725973810.289;500;26.69;39171.93
1725973810.338;500;25.89;37977.07
1725973810.388;500;27.91;40997.46
1725973810.439;500;27.91;40997.46
1725973810.488;500;27.91;40997.46
1725973810.538;500;27.07;39751.20
1725973810.590;500;24.61;36073.60
1725973810.640;500;24.61;36073.60
1725973810.689;500;24.61;36073.60
1725973810.739;500;24.24;35521.07
1725973810.790;500;24.24;35521.07
1725973810.840;500;24.24;35521.07
1725973810.890;500;24.24;35521.07
1725973810.940;500;27.89;40968.20
1725973810.990;500;28.19;41411.60
1725973811.040;500;28.19;41411.60
1725973811.090;500;28.19;41411.60
1725973811.139;500;29.01;42649.40
1725973811.190;500;28.88;42448.33
1725973811.240;500;28.88;42448.33
1725973811.290;500;28.88;42448.33
1725973811.341;500;27.17;39887.87
1725973811.391;500;24.79;36343.60
1725973811.441;500;28.88;42443.67
1725973811.491;500;28.88;42443.67
1725973811.540;500;28.88;42443.67
1725973811.641;500;28.10;41284.40
1725973811.691;500;28.10;41284.40
1725973811.741;500;28.10;41284.40
1725973811.791;500;26.26;38532.46
1725973811.841;500;28.27;41543.07
1725973811.890;500;28.27;41543.07
1725973811.940;500;28.27;41543.07
1725973811.991;500;27.66;40625.40
1725973812.041;500;27.94;41043.73
1725973812.091;500;27.94;41043.73
1725973812.141;500;28.16;41370.54
1725973812.191;500;28.17;41396.46
1725973824.544;500;24.24;35511.07
1725973824.594;500;24.24;35511.07
1725973824.645;500;24.24;35511.07
1725973824.694;500;25.14;36865.07
1725973824.744;500;28.54;41940.33
1725973824.795;500;28.54;41940.33
1725973824.844;500;28.54;41940.33
1725973824.896;500;24.67;36164.93
1725973824.945;500;26.63;39091.67
1725973824.995;500;26.63;39091.67
1725973825.045;500;26.63;39091.67
1725973825.096;500;25.10;36795.07
1725973825.145;500;24.51;35917.54
1725973825.196;500;24.51;35917.54
1725973825.246;500;24.51;35917.54
1725973825.296;500;28.53;41930.27
1725973825.346;500;29.36;43169.80
1725973825.396;500;29.36;43169.80
1725973825.446;500;29.36;43169.80
1725973825.496;500;28.25;41513.07
1725973825.546;500;26.76;39285.54
1725973825.596;500;26.76;39285.54
1725973825.646;500;24.94;36563.20
1725973825.696;500;24.20;35457.73
1725973825.745;500;24.20;35457.73
1725973825.795;500;24.20;35457.73
1725973825.845;500;28.38;41696.13
1725973825.896;500;25.24;37017.80
1725973825.945;500;25.24;37017.80
1725973825.996;500;25.24;37017.80
1725973826.046;500;27.53;40429.33
1725973826.096;500;28.02;41157.80
1725973826.146;500;28.23;41486.00
1725973826.195;500;28.23;41486.00
1725973826.245;500;27.18;39916.20
1725973826.296;500;28.04;41198.00
1725973826.345;500;28.00;41131.87
1725973826.396;500;28.00;41131.87
1725973826.446;500;28.00;41131.87
1725973826.495;500;28.51;41898.80
1725973826.546;500;28.71;42200.33
1725973826.596;500;28.71;42200.33
1725973826.646;500;28.71;42200.33
1725973826.696;500;27.97;41095.60
1725973826.746;500;28.30;41580.33
1725973826.796;500;28.30;41580.33
1725973826.847;500;28.30;41580.33
1725973826.897;500;28.49;41871.07
1725973826.947;500;27.95;41065.60
1725973826.997;500;27.95;41065.60
1725973827.047;500;28.05;41214.60
1725973827.097;500;27.99;41118.87
1725973827.147;500;28.28;41553.00
1725973827.196;500;28.28;41553.00
1725973827.248;500;28.28;41553.00
1725973827.298;500;28.27;41533.60
1725973827.348;500;28.03;41184.40
1725973827.398;500;28.03;41184.40
1725973827.448;500;28.03;41184.40
1725973827.498;500;24.03;35206.13
1725973827.547;500;24.63;36105.07
1725973827.597;500;24.63;36105.07
1725973827.648;500;24.63;36105.07
1725973827.698;500;28.51;41893.60
1725973827.749;500;29.04;42685.00
1725973827.798;500;29.04;42685.00
1725973827.848;500;29.04;42685.00
1725973827.906;500;27.62;40572.80
1725973827.949;500;28.76;42275.33
1725973827.999;500;24.88;36478.20
1725973828.049;500;24.88;36478.20
1725973828.100;500;24.88;36478.20
1725973828.149;500;27.69;40665.60
1725973828.199;500;28.44;41788.46
1725973828.249;500;28.26;41524.07
1725973828.301;500;28.26;41524.07
1725973828.351;500;28.26;41524.07
1725973828.401;500;28.39;41710.93
1725973828.450;500;24.28;35574.80
1725973828.501;500;24.28;35574.80
1725973828.550;500;24.28;35574.80
1725973828.602;500;26.12;38325.80
1725973828.651;500;24.75;36275.80
1725973828.701;500;24.75;36275.80
1725973828.751;500;24.75;36275.80
1725973828.803;500;28.25;41502.40
1725973828.852;500;27.60;40542.80
1725973828.903;500;27.60;40542.80
1725973828.953;500;27.60;40542.80
1725973829.002;500;28.91;42490.67
1725973829.053;500;28.60;42036.07
1725973829.103;500;28.60;42036.07
1725973829.152;500;28.60;42036.07
1725973829.203;500;28.41;41747.20
1725973829.253;500;24.91;36515.93
1725973829.303;500;24.91;36515.93
1725973829.352;500;24.91;36515.93
1725973829.403;500;28.48;41852.73
1725973829.453;500;28.81;42350.40
1725973829.503;500;28.81;42350.40
1725973829.553;500;28.81;42350.40
1725973829.603;500;29.07;42735.54
1725973829.655;500;28.11;41303.40
1725973829.703;500;28.11;41303.40
1725973829.753;500;28.11;41303.40
1725973829.804;500;28.60;42026.00
1725974122.414;165;10.00;37784.20
1725974122.464;153;10.00;38582.07
1725974122.515;153;10.00;38582.07
1725974122.565;153;10.00;38582.07
1725974122.615;105;10.00;41944.93
1725974122.665;172;10.00;37284.54
1725974122.714;172;10.00;37284.54
1725974122.766;172;10.00;37284.54
1725974122.816;175;10.00;37053.20
1725974122.865;175;10.00;37053.20
1725974122.916;175;10.00;37053.20
1725974122.966;149;10.00;38921.00
1725974123.016;96;10.00;42581.40
1725974123.066;96;10.00;42581.40
1725974123.122;96;10.00;42581.40
1725974123.170;111;10.00;41579.73
1725974123.219;121;10.00;40874.80
1725974123.269;121;10.00;40874.80
1725974123.319;121;10.00;40874.80
1725974123.370;137;10.00;39743.87
1725974123.420;198;10.00;35495.00
1725974123.470;198;10.00;35495.00
1725974123.520;198;10.00;35495.00
1725974123.570;97;10.00;42526.00
1725974123.620;97;10.00;42526.00
1725974123.669;97;10.00;42526.00
1725974123.720;134;10.00;39923.73
1725974123.769;139;10.00;39559.60
1725974123.820;139;10.00;39559.60
1725974123.871;139;10.00;39559.60
1725974123.920;139;10.00;39559.60
1725974123.971;101;10.00;42272.07
1725974124.021;127;10.00;40452.54
1725974124.071;127;10.00;40452.54
1725974124.121;127;10.00;40452.54
1725974124.171;109;10.00;41691.67
1725974124.222;184;10.00;36428.07
1725974124.272;184;10.00;36428.07
1725974124.322;184;10.00;36428.07
1725974124.372;129;10.00;40321.54
1725974124.422;142;10.00;39382.73
1725974124.473;142;10.00;39382.73
1725974124.523;142;10.00;39382.73
1725974124.573;115;10.00;41278.27
1725974124.623;123;10.00;40708.00
1725974124.673;123;10.00;40708.00
1725974124.723;108;10.00;41736.33
1725974124.773;85;10.00;43367.60
1725974124.823;85;10.00;43367.60
1725974124.874;85;10.00;43367.60
1725974124.925;192;10.00;35856.40
1725974124.975;197;10.00;35559.46
1725974125.025;197;10.00;35559.46
1725974125.076;197;10.00;35559.46
1725974125.126;148;10.00;38987.54
1725974125.175;193;10.00;35790.60
1725974125.226;193;10.00;35790.60
1725974125.276;193;10.00;35790.60
1725974125.327;126;10.00;40513.60
1725974125.377;150;10.00;38816.20
1725974125.427;174;10.00;37126.54
1725974125.476;174;10.00;37126.54
1725974125.527;174;10.00;37126.54
1725974125.576;140;10.00;39529.67
1725974125.627;116;10.00;41221.54
1725974125.677;116;10.00;41221.54
1725974125.727;116;10.00;41221.54
1725974125.778;117;10.00;41149.60
1725974125.827;117;10.00;41149.60
1725974125.878;117;10.00;41149.60
1725974125.928;165;10.00;37804.80
1725974125.978;179;10.00;36756.73
1725974126.028;179;10.00;36756.73
1725974126.078;179;10.00;36756.73
1725974126.128;179;10.00;36756.73
1725974126.178;142;10.00;39385.93
1725974126.228;142;10.00;39385.93
1725974126.278;142;10.00;39385.93
1725974126.328;142;10.00;39385.93
1725974126.378;106;10.00;41912.73
1725974126.428;189;10.00;36076.13
1725974126.478;189;10.00;36076.13
1725974126.529;189;10.00;36076.13
1725974126.580;120;10.00;40888.07
1725974126.630;120;10.00;40888.07
1725974126.680;120;10.00;40888.07
1725974126.730;120;10.00;40888.07
1725974126.781;180;10.00;36741.54
1725974126.831;196;10.00;35601.60
1725974126.880;196;10.00;35601.60
1725974126.932;130;10.00;40250.93
1725974126.981;118;10.00;41051.54
1725974127.031;118;10.00;41051.54
1725974127.081;118;10.00;41051.54
1725974127.131;127;10.00;40429.20
1725974127.181;127;10.00;40436.20
1725974127.231;127;10.00;40436.20
1725974127.282;127;10.00;40436.20
1725974127.333;135;10.00;39856.13
1725974139.765;176;10.00;36993.87
1725974139.816;176;10.00;36993.87
1725974139.866;176;10.00;36993.87
1725974139.916;170;10.00;37451.87
1725974139.966;183;10.00;36511.60
1725974140.015;189;10.00;36092.00
1725974140.066;189;10.00;36092.00
1725974140.115;189;10.00;36092.00
1725974140.166;179;10.00;36816.00
1725974140.215;125;10.00;40598.87
1725974140.266;125;10.00;40598.87
1725974140.316;125;10.00;40598.87
1725974140.366;171;10.00;37366.67
1725974140.415;124;10.00;40669.46
1725974140.467;124;10.00;40669.46
1725974140.516;124;10.00;40669.46
1725974140.566;123;10.00;40685.80
1725974140.617;165;10.00;37759.87
1725974140.666;165;10.00;37759.87
1725974140.716;165;10.00;37759.87
1725974140.766;176;10.00;37004.73
1725974140.817;95;10.00;42690.60
1725974140.868;95;10.00;42690.60
1725974140.917;95;10.00;42690.60
1725974140.967;119;10.00;41015.93
1725974141.017;158;10.00;38269.60
1725974141.067;158;10.00;38269.60
1725974141.118;158;10.00;38269.60
1725974141.168;182;10.00;36549.20
1725974141.217;97;10.00;42545.87
1725974141.268;97;10.00;42545.87
1725974141.319;97;10.00;42545.87
1725974141.369;142;10.00;39363.33
1725974141.419;168;10.00;37545.40
1725974141.469;168;10.00;37545.40
1725974141.519;168;10.00;37545.40
1725974141.569;91;10.00;42962.40
1725974141.619;126;10.00;40526.46
1725974141.669;126;10.00;40526.46
1725974141.719;126;10.00;40526.46
1725974141.769;159;10.00;38181.73
1725974141.819;104;10.00;42038.07
1725974141.869;104;10.00;42038.07
1725974141.920;104;10.00;42038.07
1725974141.969;142;10.00;39345.27
1725974142.019;136;10.00;39775.33
1725974142.071;136;10.00;39775.33
1725974142.121;136;10.00;39775.33
1725974142.171;156;10.00;38403.60
1725974142.221;80;10.00;43752.20
1725974142.271;80;10.00;43752.20
1725974142.321;93;10.00;42819.87
1725974142.371;162;10.00;38010.46
1725974142.421;169;10.00;37470.27
1725974142.471;169;10.00;37470.27
1725974142.522;143;10.00;39343.60
1725974142.571;166;10.00;37680.27
1725974142.622;178;10.00;36874.87
1725974142.672;178;10.00;36874.87
1725974142.722;180;10.00;36704.13
1725974142.772;159;10.00;38169.13
1725974142.823;174;10.00;37143.60
1725974142.873;174;10.00;37143.60
1725974142.924;174;10.00;37143.60
1725974142.974;167;10.00;37625.13
1725974143.025;95;10.00;42684.20
1725974143.075;95;10.00;42684.20
1725974143.125;95;10.00;42684.20
1725974143.175;169;10.00;37464.00
1725974143.225;122;10.00;40752.27
1725974143.275;122;10.00;40752.27
1725974143.325;122;10.00;40752.27
1725974143.375;155;10.00;38472.60
1725974143.425;102;10.00;42159.46
1725974143.475;102;10.00;42159.46
1725974143.525;102;10.00;42159.46
1725974143.575;196;10.00;35629.60
1725974143.626;155;10.00;38489.60
1725974143.676;155;10.00;38489.60
1725974143.726;155;10.00;38489.60
1725974143.775;171;10.00;37325.60
1725974143.825;118;10.00;41039.80
1725974143.876;118;10.00;41039.80
1725974143.926;118;10.00;41039.80
1725974143.977;170;10.00;37398.40
1725974144.026;169;10.00;37468.27
1725974144.077;169;10.00;37468.27
1725974144.128;169;10.00;37468.27
1725974144.178;169;10.00;37468.27
1725974144.227;92;10.00;42894.20
1725974144.278;142;10.00;39401.00
1725974144.327;142;10.00;39401.00
1725974144.377;142;10.00;39401.00
1725974144.428;132;10.00;40073.33
1725974144.478;89;10.00;43062.27
1725974144.528;104;10.00;42008.87
1725974144.579;104;10.00;42008.87
1725974144.630;91;10.00;42976.87
1725974144.679;132;10.00;40064.87
1725974144.729;131;10.00;40162.20
1725974144.780;131;10.00;40162.20
1725974144.831;131;10.00;40162.20
1725974144.881;114;10.00;41320.87
1725974157.136;190;10.00;36000.80
1725974157.287;205;10.00;34963.46
1725974157.337;191;10.00;35944.80
1725974157.387;187;10.00;36201.07
1725974157.437;187;10.00;36201.07
1725974157.487;132;10.00;40044.93
1725974157.536;198;10.00;35462.93
1725974157.588;198;10.00;35462.93
1725974157.637;198;10.00;35462.93
1725974157.687;107;10.00;41832.13
1725974157.737;98;10.00;42493.33
1725974157.787;98;10.00;42493.33
1725974157.839;98;10.00;42493.33
1725974157.889;195;10.00;35694.00
1725974157.938;109;10.00;41657.13
1725974157.988;109;10.00;41657.13
1725974158.040;109;10.00;41657.13
1725974158.090;121;10.00;40878.40
1725974158.140;173;10.00;37197.07
1725974158.190;173;10.00;37197.07
1725974158.240;173;10.00;37197.07
1725974158.290;164;10.00;37809.07
1725974158.340;142;10.00;39413.20
1725974158.391;142;10.00;39413.20
1725974158.441;142;10.00;39413.20
1725974158.491;181;10.00;36629.87
1725974158.541;177;10.00;36951.33
1725974158.591;177;10.00;36951.33
1725974158.640;177;10.00;36951.33
1725974158.692;150;10.00;38839.54
1725974158.741;193;10.00;35831.73
1725974158.793;199;10.00;35390.80
1725974158.842;199;10.00;35390.80
1725974158.893;180;10.00;36714.00
1725974158.944;110;10.00;41588.80
1725974158.993;110;10.00;41588.80
1725974159.043;110;10.00;41588.80
1725974159.095;190;10.00;36037.20
1725974159.145;114;10.00;41343.07
1725974159.195;114;10.00;41343.07
1725974159.245;114;10.00;41343.07
1725974159.297;166;10.00;37717.67
1725974159.347;192;10.00;35892.40
1725974159.397;192;10.00;35892.40
1725974159.447;192;10.00;35892.40
1725974159.497;121;10.00;40880.67
1725974159.547;173;10.00;37197.20
1725974159.597;173;10.00;37197.20
1725974159.647;173;10.00;37197.20
1725974159.697;144;10.00;39270.00
1725974159.748;174;10.00;37165.87
1725974159.797;174;10.00;37165.87
1725974159.847;176;10.00;37030.93
1725974159.897;93;10.00;42825.13
1725974159.947;193;10.00;35808.67
1725974159.997;193;10.00;35808.67
1725974160.047;193;10.00;35808.67
1725974160.098;179;10.00;36801.73
1725974160.147;117;10.00;41113.93
1725974160.198;117;10.00;41113.93
1725974160.247;117;10.00;41113.93
1725974160.298;120;10.00;40913.33
1725974160.347;147;10.00;39011.27
1725974160.399;147;10.00;39011.27
1725974160.449;147;10.00;39011.27
1725974160.500;106;10.00;41930.93
1725974160.549;138;10.00;39672.67
1725974160.600;138;10.00;39672.67
1725974160.649;138;10.00;39672.67
1725974160.706;171;10.00;37352.13
1725974160.753;94;10.00;42746.07
1725974160.803;94;10.00;42746.07
1725974160.853;94;10.00;42746.07
1725974160.953;172;10.00;37279.07
1725974161.003;172;10.00;37279.07
1725974161.052;172;10.00;37279.07
1725974161.102;204;10.00;35046.27
1725974161.153;136;10.00;39771.87
1725974161.203;136;10.00;39771.87
1725974161.253;136;10.00;39771.87
1725974161.303;154;10.00;38558.87
1725974161.352;157;10.00;38316.54
1725974161.403;157;10.00;38316.54
1725974161.453;184;10.00;36416.93
1725974161.503;99;10.00;42394.00
1725974161.553;99;10.00;42394.00
1725974161.603;99;10.00;42394.00
1725974161.654;177;10.00;36914.13
1725974161.704;177;10.00;36914.13
1725974161.755;177;10.00;36914.13
1725974161.805;163;10.00;37922.07
1725974161.855;168;10.00;37572.27
1725974161.905;168;10.00;37572.27
1725974161.956;168;10.00;37572.27
1725974162.006;115;10.00;41249.46
1725974300.697;163;30.00;37905.73
1725974300.747;191;30.00;35957.73
1725974300.797;144;30.00;39244.27
1725974300.847;144;30.00;39244.27
1725974300.898;144;30.00;39244.27
1725974300.948;152;30.00;38670.27
1725974300.998;167;30.00;37618.60
1725974301.049;167;30.00;37618.60
1725974301.098;167;30.00;37618.60
1725974301.149;117;30.00;41119.73
1725974301.199;102;30.00;42200.00
1725974301.248;102;30.00;42200.00
1725974301.298;102;30.00;42200.00
1725974301.348;103;30.00;42138.07
1725974301.399;118;30.00;41042.67
1725974301.449;118;30.00;41042.67
1725974301.498;118;30.00;41042.67
1725974301.548;176;30.00;37035.20
1725974301.598;205;30.00;34990.40
1725974301.648;205;30.00;34990.40
1725974301.698;205;30.00;34990.40
1725974301.799;82;30.00;43601.87
1725974301.849;82;30.00;43601.87
1725974301.898;82;30.00;43601.87
1725974301.949;184;30.00;36412.27
1725974302.200;204;30.00;35071.27
1725974302.250;204;30.00;35071.27
1725974302.300;204;30.00;35071.27
1725974302.350;195;30.00;35695.87
1725974302.400;105;30.00;41945.00
1725974302.451;105;30.00;41945.00
1725974302.501;105;30.00;41945.00
1725974302.550;114;30.00;41321.73
1725974302.752;85;30.00;43375.60
1725974302.801;180;30.00;36727.87
1725974302.852;180;30.00;36727.87
1725974302.901;180;30.00;36727.87
1725974302.952;98;30.00;42443.33
1725974303.002;98;30.00;42443.33
1725974303.053;98;30.00;42443.33
1725974303.102;182;30.00;36605.60
1725974303.152;119;30.00;41018.00
1725974303.202;195;30.00;35658.00
1725974303.252;195;30.00;35658.00
1725974303.302;167;30.00;37601.93
1725974303.352;101;30.00;42238.40
1725974303.554;114;30.00;41355.67
1725974303.604;195;30.00;35672.27
1725974303.654;195;30.00;35672.27
1725974303.703;195;30.00;35672.27
1725974303.755;173;30.00;37240.33
1725974303.805;121;30.00;40868.73
1725974303.855;121;30.00;40868.73
1725974303.905;121;30.00;40868.73
1725974304.005;111;30.00;41536.27
1725974304.055;111;30.00;41536.27
1725974304.105;111;30.00;41536.27
1725974304.206;97;30.00;42549.87
1725974304.256;97;30.00;42549.87
1725974304.306;97;30.00;42549.87
1725974304.406;180;30.00;36687.87
1725974304.456;180;30.00;36687.87
1725974304.506;63;30.00;44930.46
1725974304.556;78;30.00;43850.13
1725974304.606;78;30.00;43850.13
1725974304.656;78;30.00;43850.13
1725974304.707;189;30.00;36065.54
1725974304.758;189;30.00;36101.93
1725974304.807;189;30.00;36101.93
1725974304.857;189;30.00;36101.93
1725974305.007;161;30.00;38060.54
1725974305.057;161;30.00;38060.54
1725974305.108;165;30.00;37739.20
1725974305.158;151;30.00;38782.13
1725974305.360;106;30.00;41901.73
1725974305.410;174;30.00;37131.54
1725974305.460;174;30.00;37131.54
1725974305.510;174;30.00;37131.54
1725974305.559;183;30.00;36477.40
1725974305.610;106;30.00;41933.20
1725974305.660;106;30.00;41933.20
1725974305.710;106;30.00;41933.20
1725974305.760;80;30.00;43710.67
1725974317.806;203;30.00;35098.13
1725974317.855;203;30.00;35098.13
1725974317.906;203;30.00;35098.13
1725974317.955;203;30.00;35098.13
1725974318.006;138;30.00;39662.27
1725974318.055;138;30.00;39662.27
1725974318.106;138;30.00;39662.27
1725974318.156;138;30.00;39662.27
1725974318.206;199;30.00;35373.60
1725974318.256;191;30.00;35959.46
1725974318.306;191;30.00;35959.46
1725974318.356;191;30.00;35959.46
1725974318.406;101;30.00;42232.40
1725974318.456;101;30.00;42232.40
1725974318.507;101;30.00;42232.40
1725974318.557;203;30.00;35139.87
1725974318.807;170;30.00;37431.20
1725974318.857;170;30.00;37431.20
1725974318.907;170;30.00;37431.20
1725974319.007;187;30.00;36236.27
1725974319.058;187;30.00;36236.27
1725974319.108;187;30.00;36236.27
1725974319.159;157;30.00;38333.33
1725974319.208;95;30.00;42690.00
1725974319.258;95;30.00;42690.00
1725974319.309;95;30.00;42690.00
1725974319.358;95;30.00;42690.00
1725974319.409;94;30.00;42763.33
1725974319.458;94;30.00;42763.33
1725974319.509;94;30.00;42763.33
1725974319.559;137;30.00;39714.46
1725974319.608;96;30.00;42609.60
1725974319.658;96;30.00;42609.60
1725974319.709;96;30.00;42609.60
1725974319.808;167;30.00;37630.80
1725974319.859;167;30.00;37630.80
1725974319.908;167;30.00;37630.80
1725974319.959;167;30.00;37630.80
1725974320.009;145;30.00;39153.54
1725974320.059;136;30.00;39780.13
1725974320.108;136;30.00;39780.13
1725974320.159;102;30.00;42182.40
1725974320.209;195;30.00;35686.13
1725974320.259;195;30.00;35686.13
1725974320.310;195;30.00;35686.13
1725974320.361;83;30.00;43477.60
1725974320.410;109;30.00;41682.27
1725974320.460;109;30.00;41682.27
1725974320.511;109;30.00;41682.27
1725974320.763;101;30.00;42242.46
1725974320.964;156;30.00;38367.00
1725974321.013;188;30.00;36137.33
1725974321.064;188;30.00;36137.33
1725974321.114;188;30.00;36137.33
1725974321.165;170;30.00;37402.87
1725974321.215;126;30.00;40467.46
1725974321.265;126;30.00;40467.46
1725974321.315;126;30.00;40467.46
1725974321.365;182;30.00;36560.80
1725974321.415;185;30.00;36390.54
1725974321.465;185;30.00;36390.54
1725974321.515;185;30.00;36390.54
1725974321.565;165;30.00;37753.93
1725974321.615;134;30.00;39906.93
1725974321.665;134;30.00;39906.93
1725974321.715;103;30.00;42108.46
1725974321.765;201;30.00;35267.33
1725974321.815;153;30.00;38606.93
1725974321.865;153;30.00;38606.93
1725974321.916;201;30.00;35282.80
1725974321.966;138;30.00;39682.54
1725974322.015;183;30.00;36533.46
1725974322.066;183;30.00;36533.46
1725974322.116;183;30.00;36533.46
1725974322.166;68;30.00;44550.93
1725974322.216;191;30.00;35925.93
1725974322.266;191;30.00;35925.93
1725974322.316;191;30.00;35925.93
1725974322.416;181;30.00;36684.93
1725974322.466;181;30.00;36684.93
1725974322.516;181;30.00;36684.93
1725974322.566;149;30.00;38895.33
1725974322.616;103;30.00;42131.46
1725974322.666;103;30.00;42131.46
1725974322.716;103;30.00;42131.46
1725974322.767;68;30.00;44565.87
1725974322.816;102;30.00;42145.54
1725974322.867;102;30.00;42145.54
1725974322.917;102;30.00;42145.54
1725974322.966;158;30.00;38286.40
1725974335.046;158;30.00;38268.80
1725974335.096;191;30.00;35940.54
1725974335.146;191;30.00;35940.54
1725974335.197;191;30.00;35940.54
1725974335.246;195;30.00;35639.73
1725974335.296;79;30.00;43765.33
1725974335.346;91;30.00;42953.20
1725974335.397;91;30.00;42953.20
1725974335.447;146;30.00;39098.93
1725974335.498;165;30.00;37793.73
1725974335.547;170;30.00;37405.07
1725974335.598;170;30.00;37405.07
1725974335.648;196;30.00;35617.73
1725974335.698;133;30.00;40022.67
1725974335.748;194;30.00;35708.93
1725974335.800;194;30.00;35708.93
1725974335.849;170;30.00;37453.87
1725974335.900;206;30.00;34936.93
1725974335.949;202;30.00;35209.60
1725974336.001;202;30.00;35209.60
1725974336.051;202;30.00;35209.60
1725974336.101;82;30.00;43561.46
1725974336.151;112;30.00;41500.00
1725974336.201;112;30.00;41500.00
1725974336.251;130;30.00;40194.67
1725974336.301;123;30.00;40717.87
1725974336.351;123;30.00;40717.87
1725974336.402;123;30.00;40717.87
1725974336.452;192;30.00;35858.80
1725974336.501;178;30.00;36867.33
1725974336.551;178;30.00;36867.33
1725974336.602;178;30.00;36867.33
1725974336.651;101;30.00;42223.07
1725974336.702;115;30.00;41244.73
1725974336.751;115;30.00;41244.73
1725974336.803;115;30.00;41244.73
1725974336.853;125;30.00;40567.67
1725974336.903;185;30.00;36398.54
1725974336.953;185;30.00;36398.54
1725974337.003;185;30.00;36398.54
1725974337.053;102;30.00;42146.67
1725974337.103;150;30.00;38820.67
1725974337.153;150;30.00;38820.67
1725974337.203;150;30.00;38820.67
1725974337.253;89;30.00;43077.54
1725974337.303;188;30.00;36194.13
1725974337.353;121;30.00;40848.27
1725974337.403;121;30.00;40848.27
1725974337.453;121;30.00;40848.27
1725974337.502;202;30.00;35167.33
1725974337.553;113;30.00;41380.80
1725974337.603;113;30.00;41380.80
1725974337.652;113;30.00;41380.80
1725974337.703;180;30.00;36719.46
1725974337.753;114;30.00;41359.60
1725974337.803;114;30.00;41359.60
1725974337.853;114;30.00;41359.60
1725974337.905;124;30.00;40650.33
1725974337.955;202;30.00;35174.67
1725974338.005;202;30.00;35174.67
1725974338.055;202;30.00;35174.67
1725974338.105;202;30.00;35174.67
1725974338.155;175;30.00;37091.60
1725974338.205;99;30.00;42381.46
1725974338.256;99;30.00;42381.46
1725974338.305;99;30.00;42381.46
1725974338.355;205;30.00;34991.73
1725974338.405;103;30.00;42124.93
1725974338.456;75;30.00;44043.20
1725974338.505;75;30.00;44043.20
1725974338.555;110;30.00;41642.13
1725974338.756;179;30.00;36777.93
1725974338.806;192;30.00;35848.93
1725974338.856;192;30.00;35848.93
1725974338.907;192;30.00;35848.93
1725974338.956;172;30.00;37282.80
1725974339.006;188;30.00;36140.27
1725974339.056;188;30.00;36140.27
1725974339.106;188;30.00;36140.27
1725974339.156;198;30.00;35485.60
1725974339.208;90;30.00;43020.67
1725974339.258;92;30.00;42878.27
1725974339.308;92;30.00;42878.27
1725974339.358;92;30.00;42878.27
1725974339.459;178;30.00;36863.40
1725974339.508;178;30.00;36863.40
1725974339.558;178;30.00;36863.40
1725974339.658;180;30.00;36689.80
1725974339.709;180;30.00;36689.80
1725974339.758;100;30.00;42345.73
1725974339.809;92;30.00;42908.13
1725974339.859;92;30.00;42908.13
1725974339.909;92;30.00;42908.13
1725974339.960;102;30.00;42155.80
1725974340.010;75;30.00;44046.87
1725974340.059;75;30.00;44046.87
1725974340.110;75;30.00;44046.87
1725974340.159;72;30.00;44285.33
1725974340.209;168;30.00;37572.67
1725974340.259;168;30.00;37572.67
1725974340.309;168;30.00;37572.67
1725974340.359;168;30.00;37572.67
1725974340.410;195;30.00;35671.87
1725974541.712;200;24.57;36013.60
1725974541.762;200;25.00;36646.87
1725974541.812;200;25.00;36646.87
1725974541.863;200;25.00;36646.87
1725974541.913;200;25.73;37743.46
1725974541.963;200;24.15;35387.67
1725974542.013;200;24.15;35387.67
1725974542.062;200;25.04;36708.87
1725974542.113;200;25.13;36846.13
1725974542.163;200;24.94;36569.73
1725974542.212;200;24.94;36569.73
1725974542.265;200;24.79;36336.40
1725974542.315;200;29.25;43009.80
1725974542.365;200;29.28;43048.00
1725974542.415;200;29.28;43048.00
1725974542.465;200;29.28;43048.00
1725974542.515;200;28.73;42218.73
1725974542.565;200;29.24;42987.00
1725974542.614;200;29.24;42987.00
1725974542.665;200;29.24;42987.00
1725974542.715;200;24.18;35429.20
1725974542.765;200;29.10;42774.00
1725974542.815;200;29.10;42774.00
1725974542.865;200;29.10;42774.00
1725974542.965;200;24.75;36286.00
1725974543.016;200;24.75;36286.00
1725974543.066;200;24.71;36220.67
1725974543.116;200;24.24;35519.20
1725974543.166;200;23.95;35080.54
1725974543.216;200;23.95;35080.54
1725974543.267;200;23.95;35080.54
1725974543.316;200;23.93;35053.20
1725974543.366;200;29.90;43975.20
1725974543.416;200;29.90;43975.20
1725974543.466;200;29.90;43975.20
1725974543.517;200;24.87;36451.46
1725974543.567;200;26.85;39415.00
1725974543.616;200;26.85;39415.00
1725974543.666;200;29.11;42798.80
1725974543.716;200;24.52;35933.40
1725974543.767;200;24.52;35933.40
1725974543.817;200;24.52;35933.40
1725974543.867;200;26.13;38337.60
1725974543.917;200;29.57;43476.07
1725974543.967;200;29.57;43476.07
1725974544.017;200;29.57;43476.07
1725974544.072;200;27.66;40619.87
1725974544.120;200;29.29;43067.07
1725974544.170;200;28.63;42070.40
1725974544.219;200;28.63;42070.40
1725974544.270;200;28.63;42070.40
1725974544.320;200;25.47;37350.07
1725974544.370;200;25.06;36737.60
1725974544.419;200;25.06;36737.60
1725974544.469;200;25.06;36737.60
1725974544.520;200;28.46;41828.33
1725974544.570;200;29.55;43446.73
1725974544.620;200;29.55;43446.73
1725974544.671;200;29.55;43446.73
1725974544.722;200;29.55;43446.73
1725974544.771;200;29.17;42886.60
1725974544.823;200;29.12;42814.54
1725974544.873;200;29.12;42814.54
1725974544.923;200;29.12;42814.54
1725974544.973;200;23.91;35028.00
1725974545.023;200;23.91;35028.00
1725974545.072;200;23.91;35028.00
1725974545.123;200;23.91;35028.00
1725974545.172;200;28.35;41658.33
1725974545.223;200;29.18;42899.67
1725974545.272;200;29.18;42899.67
1725974545.323;200;29.18;42899.67
1725974545.380;200;24.18;35434.20
1725974545.427;200;27.23;39979.00
1725974545.477;200;27.23;39979.00
1725974545.527;200;27.23;39979.00
1725974545.577;200;26.79;39320.00
1725974545.627;200;29.36;43167.07
1725974545.676;200;29.36;43167.07
1725974545.727;200;29.36;43167.07
1725974545.776;200;27.63;40582.13
1725974545.827;200;29.06;42714.93
1725974545.877;200;29.06;42714.93
1725974545.927;200;29.06;42714.93
1725974545.977;200;29.26;43016.93
1725974546.077;200;23.89;34989.33
1725974546.128;200;23.89;34989.33
1725974546.178;200;26.10;38293.46
1725974546.377;200;24.05;35237.46
1725974546.428;200;28.44;41792.27
1725974546.477;200;24.52;35942.13
1725974546.528;200;24.52;35942.13
1725974546.578;200;24.26;35545.67
1725974546.627;200;29.85;43906.33
1725974546.678;200;28.08;41261.33
1725974546.728;200;28.08;41261.33
1725974546.778;200;28.08;41261.33
1725974546.878;200;29.13;42826.87
1725974558.735;200;24.66;36150.46
1725974558.785;200;25.54;37464.93
1725974558.835;200;25.54;37464.93
1725974558.885;200;24.18;35425.80
1725974558.935;200;25.03;36692.33
1725974558.985;200;25.03;36692.33
1725974559.035;200;25.03;36692.33
1725974559.085;200;27.18;39912.33
1725974559.136;200;25.98;38120.80
1725974559.185;200;25.98;38120.80
1725974559.235;200;25.98;38120.80
1725974559.285;200;29.74;43727.87
1725974559.336;200;25.57;37497.87
1725974559.385;200;25.57;37497.87
1725974559.435;200;25.57;37497.87
1725974559.487;200;24.23;35496.20
1725974559.537;200;27.96;41081.07
1725974559.587;200;27.96;41081.07
1725974559.637;200;27.96;41081.07
1725974559.687;200;25.38;37216.54
1725974559.737;200;25.38;37216.54
1725974559.786;200;25.38;37216.54
1725974559.836;200;29.37;43187.07
1725974559.887;200;28.18;41410.27
1725974559.937;200;28.18;41410.27
1725974559.987;200;29.05;42707.00
1725974560.037;200;27.82;40871.20
1725974560.088;200;24.45;35825.00
1725974560.138;200;24.45;35825.00
1725974560.188;200;27.03;39682.20
1725974560.238;200;27.03;39682.20
1725974560.288;200;27.03;39682.20
1725974560.340;200;29.28;43042.54
1725974560.541;200;28.47;41834.13
1725974560.591;200;24.17;35406.00
1725974560.641;200;24.17;35406.00
1725974560.691;200;24.17;35406.00
1725974560.741;200;25.47;37354.93
1725974560.790;200;28.49;41860.46
1725974560.841;200;28.49;41860.46
1725974560.891;200;28.49;41860.46
1725974560.941;200;25.15;36870.87
1725974560.991;200;24.25;35530.13
1725974561.040;200;24.25;35530.13
1725974561.091;200;24.21;35467.73
1725974561.141;200;25.13;36851.33
1725974561.192;200;26.21;38458.93
1725974561.242;200;26.21;38458.93
1725974561.342;200;26.38;38719.20
1725974561.392;200;26.38;38719.20
1725974561.442;200;26.38;38719.20
1725974561.492;200;28.87;42440.73
1725974561.542;200;28.87;42440.73
1725974561.591;200;28.87;42440.73
1725974561.642;200;27.05;39720.67
1725974561.691;200;28.87;42440.13
1725974561.742;200;28.87;42440.13
1725974561.793;200;27.15;39862.27
1725974561.844;200;29.32;43103.54
1725974561.894;200;29.32;43103.54
1725974561.944;200;29.32;43103.54
1725974561.994;200;28.43;41778.67
1725974562.043;200;28.24;41493.60
1725974562.093;200;28.24;41493.60
1725974562.144;200;28.24;41493.60
1725974562.193;200;26.48;38861.20
1725974562.243;200;29.00;42633.46
1725974562.295;200;29.00;42633.46
1725974562.345;200;29.00;42633.46
1725974562.445;200;28.47;41835.73
1725974562.495;200;28.47;41835.73
1725974562.545;200;28.47;41835.73
1725974562.595;200;28.47;41830.40
1725974562.645;200;27.94;41048.40
1725974562.695;200;27.94;41048.40
1725974562.745;200;27.94;41048.40
1725974562.795;200;27.54;40448.27
1725974562.845;200;25.29;37092.07
1725974562.895;200;24.22;35485.20
1725974562.945;200;24.22;35485.20
1725974562.995;200;28.83;42379.33
1725974563.045;200;24.20;35461.33
1725974563.095;200;27.44;40304.07
1725974563.145;200;27.44;40304.07
1725974563.195;200;28.41;41743.20
1725974563.245;200;28.60;42038.40
1725974563.295;200;24.05;35232.67
1725974563.345;200;24.05;35232.67
1725974563.395;200;23.91;35027.33
1725974563.445;200;27.23;39979.87
1725974574.405;200;23.96;35099.20
1725974574.455;200;23.96;35099.20
1725974574.505;200;23.85;34935.73
1725974574.556;200;26.71;39205.60
1725974574.606;200;26.71;39205.60
1725974574.655;200;26.71;39205.60
1725974574.706;200;29.03;42671.20
1725974574.757;200;29.80;43831.20
1725974574.806;200;29.80;43831.20
1725974574.857;200;29.80;43831.20
1725974574.907;200;24.74;36266.40
1725974574.957;200;28.20;41435.20
1725974575.006;200;28.20;41435.20
1725974575.057;200;28.20;41435.20
1725974575.107;200;28.65;42107.33
1725974575.157;200;26.89;39473.46
1725974575.207;200;27.80;40834.67
1725974575.258;200;27.80;40834.67
1725974575.308;200;27.69;40678.67
1725974575.357;200;27.25;40015.07
1725974575.407;200;24.30;35613.73
1725974575.458;200;24.30;35613.73
1725974575.508;200;24.30;35613.73
1725974575.557;200;24.92;36536.13
1725974575.608;200;27.33;40128.13
1725974575.659;200;27.33;40128.13
1725974575.709;200;27.33;40128.13
1725974575.759;200;25.77;37802.80
1725974575.809;200;29.16;42868.73
1725974575.859;200;29.16;42868.73
1725974575.909;200;29.16;42868.73
1725974575.959;200;27.92;41010.00
1725974576.009;200;29.08;42743.73
1725974576.059;200;29.08;42743.73
1725974576.109;200;29.31;43093.00
1725974576.160;200;27.39;40219.07
1725974576.209;200;24.61;36068.27
1725974576.261;200;24.61;36068.27
1725974576.310;200;24.61;36068.27
1725974576.360;200;27.91;40995.60
1725974576.410;200;25.89;37989.00
1725974576.461;200;25.89;37989.00
1725974576.510;200;25.89;37989.00
1725974576.560;200;28.61;42044.13
1725974576.611;200;28.95;42557.33
1725974576.661;200;28.95;42557.33
1725974576.711;200;28.95;42557.33
1725974576.762;200;28.47;41841.20
1725974576.811;200;26.98;39604.73
1725974576.863;200;26.98;39604.73
1725974576.913;200;27.29;40074.40
1725974576.964;200;29.28;43053.87
1725974577.013;200;29.28;43053.87
1725974577.064;200;29.28;43053.87
1725974577.114;200;29.14;42845.07
1725974577.165;200;29.78;43793.73
1725974577.215;200;29.78;43793.73
1725974577.265;200;29.78;43793.73
1725974577.516;200;28.67;42140.27
1725974577.566;200;24.38;35733.73
1725974577.616;200;25.16;36886.46
1725974577.666;200;25.16;36886.46
1725974577.716;200;25.16;36886.46
1725974577.767;200;28.68;42144.54
1725974577.816;200;24.02;35194.27
1725974577.867;200;24.02;35194.27
1725974577.917;200;28.48;41848.33
1725974577.967;200;29.87;43925.20
1725974578.017;200;29.87;43925.20
1725974578.067;200;29.87;43925.20
1725974578.117;200;29.97;44072.27
1725974578.167;200;28.81;42342.20
1725974578.217;200;28.81;42342.20
1725974578.267;200;25.77;37807.20
1725974578.317;200;25.05;36731.60
1725974578.366;200;25.05;36731.60
1725974578.418;200;25.05;36731.60
1725974578.468;200;29.26;43014.00
1725974578.517;200;29.05;42704.54
1725974578.568;200;29.05;42704.54
1725974578.619;200;29.05;42704.54
1725974578.669;200;28.74;42240.13
1725974578.718;200;28.61;42043.87
1725974578.769;200;28.61;42043.87
1725974578.819;200;26.11;38312.20
1725974578.870;200;24.86;36441.33
1725974579.020;200;24.11;35324.13
1725974579.071;200;25.14;36869.07
1725974579.120;200;25.14;36869.07
1725974579.170;200;25.14;36869.07
1725974579.220;200;26.98;39609.73
1725974704.120;350;25.51;37409.07
1725974704.170;350;27.43;40286.46
1725974704.220;350;27.43;40286.46
1725974704.270;350;27.43;40286.46
1725974704.322;350;24.40;35755.46
1725974704.371;350;28.35;41656.13
1725974704.421;350;28.35;41656.13
1725974704.471;350;28.35;41656.13
1725974704.521;350;28.22;41456.67
1725974704.571;350;28.22;41456.67
1725974704.621;350;28.22;41456.67
1725974704.671;350;25.71;37713.33
1725974704.721;350;25.74;37765.27
1725974704.772;350;25.74;37765.27
1725974704.822;350;25.74;37765.27
1725974704.872;350;27.16;39874.93
1725974704.921;350;28.44;41799.27
1725974704.972;350;28.44;41799.27
1725974705.021;350;28.44;41799.27
1725974705.072;350;24.52;35938.80
1725974705.121;350;26.75;39270.46
1725974705.172;350;26.75;39270.46
1725974705.221;350;26.75;39270.46
1725974705.271;350;28.35;41663.20
1725974705.322;350;25.17;36910.00
1725974705.371;350;25.17;36910.00
1725974705.421;350;25.17;36910.00
1725974705.471;350;25.13;36852.00
1725974705.523;350;27.37;40191.60
1725974705.573;350;27.37;40191.60
1725974705.622;350;27.37;40191.60
1725974705.673;350;27.37;40191.60
1725974705.873;350;24.52;35935.87
1725974705.923;350;24.57;36011.33
1725974705.973;350;24.57;36011.33
1725974706.024;350;24.57;36011.33
1725974706.073;350;24.58;36032.67
1725974706.123;350;29.36;43162.20
1725974706.174;350;29.36;43162.20
1725974706.223;350;29.36;43162.20
1725974706.274;350;29.36;43162.20
1725974706.324;350;24.12;35335.60
1725974706.374;350;24.75;36279.46
1725974706.424;350;24.75;36279.46
1725974706.475;350;25.20;36947.27
1725974706.525;350;29.41;43238.54
1725974706.575;350;27.81;40846.20
1725974706.625;350;27.81;40846.20
1725974706.675;350;27.81;40846.20
1725974706.725;350;29.01;42649.46
1725974706.775;350;26.05;38227.80
1725974706.825;350;26.05;38227.80
1725974706.876;350;26.05;38227.80
1725974706.925;350;24.11;35323.33
1725974706.975;350;24.11;35323.33
1725974707.026;350;24.11;35323.33
1725974707.075;350;24.08;35273.07
1725974707.125;350;24.26;35553.87
1725974707.176;350;24.26;35553.87
1725974707.226;350;24.26;35553.87
1725974707.276;350;28.90;42487.27
1725974707.325;350;24.24;35514.80
1725974707.376;350;24.24;35514.80
1725974707.426;350;24.24;35514.80
1725974707.477;350;28.92;42509.13
1725974707.676;350;25.16;36890.67
1725974707.728;350;25.56;37483.87
1725974707.778;350;25.56;37483.87
1725974707.828;350;25.56;37483.87
1725974707.878;350;25.40;37256.54
1725974707.928;350;29.03;42673.60
1725974707.978;350;29.03;42673.60
1725974708.028;350;29.03;42673.60
1725974708.078;350;29.03;42673.60
1725974708.127;350;24.57;36004.60
1725974708.178;350;25.77;37805.13
1725974708.227;350;25.77;37805.13
1725974708.278;350;25.77;37805.13
1725974708.329;350;24.68;36167.73
1725974708.380;350;28.23;41473.00
1725974708.429;350;28.23;41473.00
1725974708.479;350;28.23;41473.00
1725974708.530;350;25.03;36695.07
1725974708.580;350;25.03;36695.07
1725974708.629;350;25.03;36695.07
1725974708.680;350;29.43;43270.73
1725974708.729;350;24.86;36437.73
1725974708.779;350;24.86;36437.73
1725974708.829;350;24.86;36437.73
1725974708.879;350;24.29;35587.20
1725974708.929;350;28.59;42012.27
1725974708.980;350;28.59;42012.27
1725974709.030;350;28.59;42012.27
1725974709.080;350;25.86;37944.40
1725974709.131;350;24.19;35449.67
1725974721.600;350;24.76;36293.60
1725974721.650;350;23.86;34956.00
1725974721.701;350;23.86;34956.00
1725974721.750;350;23.86;34956.00
1725974721.801;350;24.64;36116.40
1725974721.850;350;29.07;42733.07
1725974721.901;350;29.07;42733.07
1725974721.951;350;29.07;42733.07
1725974722.002;350;28.17;41395.07
1725974722.153;350;29.27;43038.20
1725974722.353;350;24.05;35232.54
1725974722.403;350;23.88;34986.00
1725974722.453;350;23.86;34953.87
1725974722.503;350;23.86;34953.87
1725974722.552;350;23.86;34953.87
1725974722.602;350;24.28;35582.20
1725974722.652;350;24.14;35363.33
1725974722.702;350;24.14;35363.33
1725974722.753;350;24.14;35363.33
1725974722.804;350;24.14;35363.33
1725974722.854;350;28.89;42467.33
1725974722.904;350;27.16;39880.80
1725974722.953;350;27.16;39880.80
1725974723.003;350;27.16;39880.80
1725974723.053;350;28.70;42181.33
1725974723.104;350;24.07;35262.40
1725974723.154;350;24.07;35262.40
1725974723.204;350;25.38;37220.27
1725974723.254;350;29.00;42634.20
1725974723.304;350;29.00;42634.20
1725974723.354;350;29.00;42634.20
1725974723.404;350;29.10;42776.67
1725974723.454;350;28.95;42556.33
1725974723.503;350;28.95;42556.33
1725974723.553;350;28.10;41287.33
1725974723.603;350;26.53;38934.60
1725974723.653;350;24.11;35323.33
1725974723.703;350;24.11;35323.33
1725974723.755;350;24.11;35323.33
1725974723.805;350;23.95;35081.20
1725974723.855;350;26.99;39618.80
1725974723.906;350;26.99;39618.80
1725974723.956;350;26.99;39618.80
1725974724.006;350;28.04;41191.07
1725974724.055;350;29.36;43169.93
1725974724.106;350;29.36;43169.93
1725974724.157;350;29.36;43169.93
1725974724.207;350;29.36;43169.93
1725974724.257;350;25.29;37088.00
1725974724.307;350;25.29;37088.00
1725974724.357;350;25.29;37088.00
1725974724.407;350;25.29;37088.00
1725974724.457;350;28.28;41558.93
1725974724.508;350;28.28;41558.93
1725974724.558;350;28.28;41558.93
1725974724.608;350;28.28;41558.93
1725974724.658;350;24.72;36233.73
1725974724.708;350;28.07;41235.33
1725974724.758;350;28.11;41301.54
1725974724.809;350;28.11;41301.54
1725974724.859;350;27.90;40981.46
1725974724.909;350;28.27;41541.07
1725974724.959;350;24.59;36046.67
1725974725.009;350;24.59;36046.67
1725974725.059;350;24.59;36046.67
1725974725.109;350;28.65;42099.73
1725974725.159;350;29.27;43028.60
1725974725.209;350;29.27;43028.60
1725974725.260;350;29.27;43028.60
1725974725.311;350;25.42;37286.93
1725974725.360;350;25.54;37459.40
1725974725.411;350;25.54;37459.40
1725974725.460;350;25.54;37459.40
1725974725.511;350;25.67;37658.73
1725974725.560;350;27.80;40830.67
1725974725.610;350;27.80;40830.67
1725974725.662;350;28.18;41408.93
1725974725.712;350;24.69;36196.40
1725974725.761;350;25.26;37034.67
1725974725.811;350;25.26;37034.67
1725974725.861;350;25.26;37034.67
1725974725.911;350;25.88;37963.73
1725974725.962;350;26.97;39595.33
1725974726.012;350;26.97;39595.33
1725974726.062;350;26.97;39595.33
1725974726.112;350;27.52;40415.27
1725974726.162;350;29.42;43254.20
1725974726.213;350;29.42;43254.20
1725974726.262;350;29.42;43254.20
1725974726.312;350;29.41;43247.13
1725974726.363;350;29.05;42703.27
1725974726.413;350;29.05;42703.27
1725974726.463;350;29.05;42703.27
1725974726.513;350;29.42;43263.67
1725974738.697;350;24.52;35940.80
1725974738.749;350;24.52;35940.80
1725974738.798;350;24.52;35940.80
1725974738.850;350;25.88;37967.20
1725974738.899;350;25.50;37404.13
1725974738.949;350;24.14;35363.60
1725974739.001;350;24.14;35363.60
1725974739.051;350;24.14;35363.60
1725974739.100;350;27.81;40846.93
1725974739.151;350;27.81;40846.93
1725974739.200;350;27.81;40846.93
1725974739.252;350;28.17;41387.40
1725974739.301;350;28.22;41457.27
1725974739.353;350;28.22;41457.27
1725974739.402;350;25.05;36724.67
1725974739.452;350;28.20;41429.20
1725974739.502;350;28.20;41429.20
1725974739.552;350;28.20;41429.20
1725974739.602;350;29.00;42633.87
1725974739.652;350;24.35;35681.73
1725974739.703;350;24.57;36005.87
1725974739.753;350;24.57;36005.87
1725974739.803;350;28.13;41325.07
1725974739.853;350;28.90;42474.07
1725974739.905;350;29.11;42793.67
1725974739.955;350;29.11;42793.67
1725974740.005;350;27.39;40227.40
1725974740.055;350;26.03;38194.87
1725974740.105;350;28.93;42518.27
1725974740.155;350;28.21;41442.80
1725974740.205;350;28.21;41442.80
1725974740.255;350;28.21;41442.80
1725974740.309;350;28.21;41442.80
1725974740.355;350;27.49;40380.00
1725974740.405;350;27.72;40717.60
1725974740.455;350;27.81;40855.20
1725974740.505;350;27.81;40855.20
1725974740.555;350;27.81;40855.20
1725974740.605;350;27.86;40925.46
1725974740.656;350;27.86;40925.46
1725974740.706;350;27.86;40925.46
1725974740.756;350;27.86;40925.46
1725974740.807;350;28.99;42613.20
1725974740.858;350;29.23;42978.00
1725974740.907;350;29.23;42978.00
1725974740.958;350;29.23;42978.00
1725974741.008;350;26.03;38196.13
1725974741.059;350;27.96;41081.67
1725974741.108;350;28.91;42498.87
1725974741.158;350;28.91;42498.87
1725974741.208;350;30.85;45398.60
1725974741.258;350;25.23;36996.54
1725974741.307;350;24.14;35366.00
1725974741.359;350;24.14;35366.00
1725974741.409;350;24.14;35366.00
1725974741.458;350;25.72;37723.07
1725974741.508;350;28.23;41474.00
1725974741.559;350;28.23;41474.00
1725974741.608;350;28.23;41474.00
1725974741.659;350;28.20;41430.80
1725974741.709;350;24.67;36156.40
1725974741.758;350;24.67;36156.40
1725974741.810;350;24.67;36156.40
1725974741.860;350;25.36;37185.60
1725974741.910;350;28.93;42530.73
1725974741.960;350;28.93;42530.73
1725974742.011;350;30.19;44409.46
1725974742.065;350;28.75;42262.46
1725974742.112;350;28.54;41945.60
1725974742.163;350;28.54;41945.60
1725974742.212;350;26.68;39163.40
1725974742.263;350;28.65;42103.46
1725974742.313;350;24.67;36161.60
1725974742.365;350;24.67;36161.60
1725974742.415;350;26.26;38535.33
1725974742.465;350;29.12;42805.87
1725974742.515;350;29.05;42698.73
1725974742.565;350;29.05;42698.73
1725974742.615;350;29.05;42698.73
1725974742.665;350;24.50;35900.07
1725974742.865;350;29.08;42754.93
1725974742.915;350;24.88;36474.40
1725974742.965;350;24.88;36474.40
1725974743.015;350;24.88;36474.40
1725974743.065;350;26.77;39291.20
1725974743.115;350;28.53;41923.73
1725974743.165;350;28.53;41923.73
1725974743.215;350;28.53;41923.73
1725974743.265;350;27.53;40434.40
1725974743.315;350;28.73;42229.80
1725974743.365;350;28.73;42229.80
1725974743.415;350;28.73;42229.80
1725974743.465;350;24.38;35726.54
1725974743.515;350;28.86;42416.73
1725974743.565;350;28.86;42416.73
1725974743.615;350;28.86;42416.73
1725974743.665;350;24.43;35798.40
1725974743.715;350;29.21;42939.20
1725974743.765;350;29.21;42939.20
1725974743.815;350;29.21;42939.20
1725974743.865;350;28.03;41175.20
1725974893.675;189;20.00;36083.60
1725974893.724;189;20.00;36083.60
1725974893.774;189;20.00;36083.60
1725974893.824;161;20.00;38058.73
1725974893.874;119;20.00;40996.13
1725974893.925;119;20.00;40996.13
1725974893.974;119;20.00;40996.13
1725974894.025;96;20.00;42614.54
1725974894.075;114;20.00;41308.00
1725974894.125;114;20.00;41308.00
1725974894.174;114;20.00;41308.00
1725974894.224;110;20.00;41650.93
1725974894.274;201;20.00;35269.20
1725974894.325;201;20.00;35269.20
1725974894.375;201;20.00;35269.20
1725974894.425;153;20.00;38621.80
1725974894.474;108;20.00;41749.67
1725974894.525;108;20.00;41749.67
1725974894.575;108;20.00;41749.67
1725974894.624;170;20.00;37430.13
1725974894.674;126;20.00;40507.20
1725974894.725;126;20.00;40507.20
1725974894.774;126;20.00;40507.20
1725974894.825;185;20.00;36350.00
1725974894.875;193;20.00;35818.07
1725974894.924;193;20.00;35818.07
1725974894.974;193;20.00;35818.07
1725974895.025;186;20.00;36313.33
1725974895.075;125;20.00;40591.60
1725974895.126;125;20.00;40591.60
1725974895.175;125;20.00;40591.60
1725974895.225;102;20.00;42145.46
1725974895.275;80;20.00;43734.80
1725974895.326;80;20.00;43734.80
1725974895.376;80;20.00;43734.80
1725974895.426;154;20.00;38558.13
1725974895.476;136;20.00;39775.46
1725974895.525;136;20.00;39775.46
1725974895.576;136;20.00;39775.46
1725974895.626;147;20.00;39058.13
1725974895.675;103;20.00;42132.13
1725974895.726;103;20.00;42132.13
1725974895.776;103;20.00;42132.13
1725974895.826;103;20.00;42077.67
1725974895.875;110;20.00;41632.00
1725974895.927;110;20.00;41632.00
1725974895.977;110;20.00;41632.00
1725974896.027;146;20.00;39072.93
1725974896.077;103;20.00;42129.54
1725974896.127;103;20.00;42129.54
1725974896.177;103;20.00;42129.54
1725974896.227;144;20.00;39237.07
1725974896.277;106;20.00;41930.13
1725974896.328;106;20.00;41930.13
1725974896.377;106;20.00;41930.13
1725974896.428;118;20.00;41031.13
1725974896.477;141;20.00;39446.27
1725974896.527;141;20.00;39446.27
1725974896.578;171;20.00;37372.80
1725974896.627;115;20.00;41277.87
1725974896.677;181;20.00;36642.00
1725974896.728;181;20.00;36642.00
1725974896.778;175;20.00;37094.67
1725974896.828;115;20.00;41275.54
1725974896.878;150;20.00;38831.46
1725974896.929;150;20.00;38831.46
1725974896.978;140;20.00;39537.87
1725974897.029;120;20.00;40897.07
1725974897.078;198;20.00;35455.46
1725974897.129;198;20.00;35455.46
1725974897.178;198;20.00;35455.46
1725974897.229;198;20.00;35455.46
1725974897.279;132;20.00;40058.80
1725974897.328;114;20.00;41363.73
1725974897.379;114;20.00;41363.73
1725974897.429;86;20.00;43317.07
1725974897.479;120;20.00;40946.13
1725974897.529;121;20.00;40814.93
1725974897.579;121;20.00;40814.93
1725974897.629;196;20.00;35624.54
1725974897.679;125;20.00;40603.27
1725974897.729;125;20.00;40603.27
1725974897.779;125;20.00;40603.27
1725974897.830;141;20.00;39429.27
1725974897.879;93;20.00;42811.46
1725974897.930;93;20.00;42811.46
1725974897.979;93;20.00;42811.46
1725974898.029;164;20.00;37864.27
1725974898.079;127;20.00;40404.73
1725974898.129;127;20.00;40404.73
1725974898.179;160;20.00;38111.40
1725974898.230;116;20.00;41180.80
1725974898.281;172;20.00;37297.73
1725974898.331;172;20.00;37297.73
1725974898.380;172;20.00;37297.73
1725974898.430;128;20.00;40345.13
1725974898.480;144;20.00;39209.93
1725974898.530;144;20.00;39209.93
1725974898.580;144;20.00;39209.93
1725974898.630;198;20.00;35477.60
1725974898.680;183;20.00;36542.87
1725974898.731;183;20.00;36542.87
1725974898.781;183;20.00;36542.87
1725974898.831;183;20.00;36542.87
1725974898.881;182;20.00;36551.60
1725974898.931;194;20.00;35719.87
1725974898.981;194;20.00;35719.87
1725974899.031;194;20.00;35719.87
1725974899.082;84;20.00;43442.00
1725974911.047;197;20.00;35562.87
1725974911.097;192;20.00;35865.00
1725974911.147;192;20.00;35865.00
1725974911.197;182;20.00;36595.33
1725974911.248;159;20.00;38219.60
1725974911.298;200;20.00;35288.54
1725974911.348;200;20.00;35288.54
1725974911.397;186;20.00;36315.80
1725974911.448;183;20.00;36487.40
1725974911.498;150;20.00;38809.87
1725974911.548;150;20.00;38809.87
1725974911.598;192;20.00;35913.60
1725974911.648;158;20.00;38271.80
1725974911.697;171;20.00;37372.80
1725974911.749;171;20.00;37372.80
1725974911.798;171;20.00;37372.80
1725974911.848;196;20.00;35626.00
1725974911.898;80;20.00;43734.54
1725974911.948;80;20.00;43734.54
1725974911.999;80;20.00;43734.54
1725974912.050;80;20.00;43734.54
1725974912.100;81;20.00;43633.27
1725974912.150;127;20.00;40431.73
1725974912.200;127;20.00;40431.73
1725974912.250;127;20.00;40431.73
1725974912.300;154;20.00;38559.60
1725974912.350;91;20.00;42969.20
1725974912.400;70;20.00;44424.80
1725974912.450;70;20.00;44424.80
1725974912.500;70;20.00;44424.80
1725974912.550;203;20.00;35104.40
1725974912.600;166;20.00;37732.27
1725974912.650;166;20.00;37732.27
1725974912.701;166;20.00;37732.27
1725974912.752;167;20.00;37597.20
1725974912.802;174;20.00;37176.00
1725974912.851;174;20.00;37176.00
1725974912.901;174;20.00;37176.00
1725974913.001;91;20.00;42943.54
1725974913.051;91;20.00;42943.54
1725974913.107;91;20.00;42943.54
1725974913.155;102;20.00;42148.27
1725974913.205;181;20.00;36621.80
1725974913.255;181;20.00;36621.80
1725974913.305;181;20.00;36621.80
1725974913.355;117;20.00;41128.67
1725974913.405;160;20.00;38120.80
1725974913.455;160;20.00;38120.80
1725974913.506;160;20.00;38120.80
1725974913.555;113;20.00;41404.87
1725974913.606;113;20.00;41384.07
1725974913.656;113;20.00;41384.07
1725974913.706;113;20.00;41384.07
1725974913.756;118;20.00;41068.93
1725974913.806;97;20.00;42539.40
1725974913.856;97;20.00;42539.40
1725974913.906;97;20.00;42539.40
1725974913.957;171;20.00;37346.93
1725974914.007;79;20.00;43792.60
1725974914.056;79;20.00;43792.60
1725974914.107;79;20.00;43792.60
1725974914.157;86;20.00;43325.20
1725974914.207;154;20.00;38541.60
1725974914.257;146;20.00;39129.33
1725974914.307;146;20.00;39129.33
1725974914.357;146;20.00;39129.33
1725974914.407;98;20.00;42433.13
1725974914.457;186;20.00;36287.60
1725974914.507;186;20.00;36287.60
1725974914.557;186;20.00;36287.60
1725974914.607;146;20.00;39119.20
1725974914.657;199;20.00;35420.54
1725974914.708;194;20.00;35715.46
1725974914.757;194;20.00;35715.46
1725974914.807;176;20.00;37035.46
1725974914.857;130;20.00;40211.73
1725974914.908;130;20.00;40211.73
1725974914.957;130;20.00;40211.73
1725974915.008;130;20.00;40227.73
1725974915.057;98;20.00;42458.46
1725974915.258;100;20.00;42318.27
1725974915.460;185;20.00;36363.60
1725974915.509;170;20.00;37447.20
1725974915.559;170;20.00;37447.20
1725974915.660;145;20.00;39143.54
1725974915.709;145;20.00;39143.54
1725974915.760;145;20.00;39143.54
1725974915.810;148;20.00;38992.46
1725974915.860;110;20.00;41652.60
1725974915.910;110;20.00;41652.60
1725974915.960;110;20.00;41652.60
1725974916.009;182;20.00;36559.33
1725974916.060;98;20.00;42432.27
1725974916.110;98;20.00;42432.27
1725974916.160;98;20.00;42432.27
1725974916.210;175;20.00;37098.46
1725974916.260;92;20.00;42851.40
1725974916.310;92;20.00;42851.40
1725974916.360;92;20.00;42851.40
1725974916.410;187;20.00;36209.40
1725974916.461;196;20.00;35574.00
1725974927.940;171;20.00;37328.93
1725974927.990;199;20.00;35377.20
1725974928.041;199;20.00;35377.20
1725974928.091;199;20.00;35377.20
1725974928.141;199;20.00;35406.00
1725974928.191;179;20.00;36786.93
1725974928.241;179;20.00;36786.93
1725974928.291;179;20.00;36786.93
1725974928.342;182;20.00;36604.00
1725974928.391;103;20.00;42113.13
1725974928.442;103;20.00;42113.13
1725974928.491;103;20.00;42113.13
1725974928.541;201;20.00;35242.07
1725974928.591;106;20.00;41873.73
1725974928.642;106;20.00;41873.73
1725974928.691;106;20.00;41873.73
1725974928.741;162;20.00;38010.13
1725974928.791;201;20.00;35251.07
1725974928.842;201;20.00;35251.07
1725974928.892;201;20.00;35251.07
1725974928.942;154;20.00;38552.40
1725974928.993;153;20.00;38609.73
1725974929.045;153;20.00;38609.73
1725974929.095;153;20.00;38609.73
1725974929.146;153;20.00;38609.73
1725974929.196;160;20.00;38128.00
1725974929.246;168;20.00;37560.67
1725974929.296;168;20.00;37560.67
1725974929.346;168;20.00;37560.67
1725974929.396;78;20.00;43836.00
1725974929.447;119;20.00;40958.54
1725974929.497;119;20.00;40958.54
1725974929.547;144;20.00;39230.54
1725974929.596;121;20.00;40853.60
1725974929.647;121;20.00;40853.60
1725974929.696;121;20.00;40853.60
1725974929.748;180;20.00;36690.93
1725974929.797;172;20.00;37297.93
1725974929.847;172;20.00;37297.93
1725974929.898;172;20.00;37297.93
1725974929.948;172;20.00;37297.93
1725974929.998;133;20.00;40044.00
1725974930.048;178;20.00;36832.93
1725974930.097;178;20.00;36832.93
1725974930.148;178;20.00;36832.93
1725974930.198;206;20.00;34928.67
1725974930.248;178;20.00;36841.73
1725974930.297;178;20.00;36841.73
1725974930.349;170;20.00;37386.13
1725974930.398;177;20.00;36959.07
1725974930.449;171;20.00;37352.40
1725974930.499;171;20.00;37352.40
1725974930.549;171;20.00;37352.40
1725974930.600;157;20.00;38362.07
1725974930.650;157;20.00;38362.07
1725974930.700;157;20.00;38362.07
1725974930.750;97;20.00;42534.13
1725974930.800;184;20.00;36458.54
1725974930.851;189;20.00;36075.07
1725974930.901;189;20.00;36075.07
1725974930.951;189;20.00;36075.07
1725974931.000;147;20.00;39043.46
1725974931.050;103;20.00;42077.54
1725974931.101;103;20.00;42077.54
1725974931.152;111;20.00;41559.20
1725974931.201;137;20.00;39741.00
1725974931.251;136;20.00;39829.80
1725974931.302;136;20.00;39829.80
1725974931.353;136;20.00;39829.80
1725974931.403;127;20.00;40407.60
1725974931.454;127;20.00;40407.60
1725974931.503;127;20.00;40407.60
1725974931.554;183;20.00;36542.13
1725974931.605;176;20.00;37033.20
1725974931.655;176;20.00;37033.20
1725974931.705;176;20.00;37033.20
1725974931.755;155;20.00;38467.60
1725974931.806;94;20.00;42739.13
1725974931.855;94;20.00;42739.13
1725974931.906;94;20.00;42739.13
1725974931.956;92;20.00;42902.27
1725974932.014;133;20.00;39994.33
1725974932.059;83;20.00;43524.87
1725974932.109;83;20.00;43524.87
1725974932.159;83;20.00;43524.87
1725974932.208;105;20.00;41991.13
1725974932.259;166;20.00;37686.00
1725974932.310;166;20.00;37686.00
1725974932.359;183;20.00;36481.87
1725974932.410;95;20.00;42656.93
1725974932.459;95;20.00;42656.93
1725974932.509;95;20.00;42656.93
1725974932.559;192;20.00;35879.07
1725974932.611;95;20.00;42636.60
1725974932.660;95;20.00;42636.60
1725974932.710;95;20.00;42636.60
1725974932.761;194;20.00;35775.60
1725974932.811;123;20.00;40702.80
1725974932.860;123;20.00;40702.80
1725974932.910;123;20.00;40702.80
1725974932.961;129;20.00;40267.00
1725974933.011;165;20.00;37794.00
1725974933.060;165;20.00;37794.00
1725974933.112;165;20.00;37794.00
1725974933.161;165;20.00;37794.00
1725974933.212;83;20.00;43494.40
1725974933.261;83;20.00;43494.40
1725974933.312;83;20.00;43494.40
1725974933.363;83;20.00;43494.40
1725974933.413;94;20.00;42720.00
1725975011.196;165;40.00;37800.67
1725975011.245;165;40.00;37800.67
1725975011.296;165;40.00;37800.67
1725975011.346;100;40.00;42350.80
1725975011.396;143;40.00;39333.27
1725975011.445;143;40.00;39333.27
1725975011.496;143;40.00;39333.27
1725975011.546;117;40.00;41151.07
1725975011.596;117;40.00;41151.07
1725975011.645;117;40.00;41151.07
1725975011.696;117;40.00;41151.07
1725975011.746;183;40.00;36480.40
1725975011.796;206;40.00;34921.20
1725975011.845;206;40.00;34921.20
1725975011.895;206;40.00;34921.20
1725975011.946;62;40.00;44966.20
1725975011.997;152;40.00;38689.46
1725975012.196;191;40.00;35925.46
1725975012.247;188;40.00;36138.27
1725975012.296;188;40.00;36138.27
1725975012.346;188;40.00;36138.27
1725975012.396;184;40.00;36415.60
1725975012.447;119;40.00;40999.33
1725975012.496;119;40.00;40999.33
1725975012.547;119;40.00;40999.33
1725975012.598;81;40.00;43628.80
1725975012.648;80;40.00;43683.60
1725975012.699;80;40.00;43683.60
1725975012.749;80;40.00;43683.60
1725975012.799;199;40.00;35373.27
1725975013.000;102;40.00;42152.27
1725975013.050;169;40.00;37464.13
1725975013.100;169;40.00;37464.13
1725975013.151;169;40.00;37464.13
1725975013.200;182;40.00;36593.00
1725975013.252;156;40.00;38420.93
1725975013.302;156;40.00;38420.93
1725975013.352;185;40.00;36345.54
1725975013.402;150;40.00;38853.60
1725975013.452;152;40.00;38647.46
1725975013.502;152;40.00;38647.46
1725975013.602;109;40.00;41696.33
1725975013.652;109;40.00;41696.33
1725975013.702;109;40.00;41696.33
1725975013.752;109;40.00;41696.33
1725975013.802;118;40.00;41068.20
1725975014.002;201;40.00;35265.00
1725975014.401;199;40.00;35412.80
1725975014.453;199;40.00;35412.80
1725975014.502;199;40.00;35412.80
1725975014.602;194;40.00;35769.54
1725975014.653;194;40.00;35769.54
1725975014.702;194;40.00;35769.54
1725975014.753;203;40.00;35088.27
1725975014.802;203;40.00;35088.27
1725975014.853;203;40.00;35088.27
1725975014.903;203;40.00;35088.27
1725975014.952;77;40.00;43921.13
1725975015.153;108;40.00;41734.60
1725975015.203;171;40.00;37317.33
1725975015.253;185;40.00;36386.80
1725975015.303;185;40.00;36386.80
1725975015.354;185;40.00;36386.80
1725975015.403;108;40.00;41755.60
1725975015.453;151;40.00;38737.46
1725975015.504;151;40.00;38737.46
1725975015.554;164;40.00;37822.93
1725975015.604;150;40.00;38854.73
1725975015.655;150;40.00;38854.73
1725975015.704;150;40.00;38854.73
1725975015.956;98;40.00;42447.87
1725975016.005;199;40.00;35414.40
1725975016.056;199;40.00;35414.40
1725975016.106;199;40.00;35414.40
1725975016.157;190;40.00;36022.54
1725975016.359;99;40.00;42356.67
1725975028.333;185;40.00;36358.73
1725975028.383;185;40.00;36358.73
1725975028.433;185;40.00;36358.73
1725975028.483;185;40.00;36358.73
1725975028.533;124;40.00;40640.46
1725975028.583;95;40.00;42649.00
1725975028.633;95;40.00;42649.00
1725975028.683;96;40.00;42586.40
1725975028.733;182;40.00;36585.40
1725975028.783;182;40.00;36585.40
1725975028.833;182;40.00;36585.40
1725975028.933;164;40.00;37830.80
1725975028.983;164;40.00;37830.80
1725975029.033;164;40.00;37830.80
1725975029.083;184;40.00;36424.20
1725975029.133;132;40.00;40086.40
1725975029.183;132;40.00;40086.40
1725975029.235;107;40.00;41798.13
1725975029.284;159;40.00;38188.33
1725975029.485;56;40.00;45362.54
1725975029.534;162;40.00;37960.60
1725975029.585;162;40.00;37960.60
1725975029.635;162;40.00;37960.60
1725975029.685;149;40.00;38868.27
1725975029.735;162;40.00;37978.54
1725975029.786;162;40.00;37978.54
1725975029.835;162;40.00;37978.54
1725975029.886;110;40.00;41604.40
1725975029.935;60;40.00;45148.60
1725975029.986;60;40.00;45148.60
1725975030.035;60;40.00;45148.60
1725975030.086;165;40.00;37781.13
1725975030.136;67;40.00;44659.20
1725975030.186;67;40.00;44659.20
1725975030.235;67;40.00;44659.20
1725975030.286;201;40.00;35258.80
1725975030.336;148;40.00;38960.46
1725975030.385;148;40.00;38960.46
1725975030.436;148;40.00;38960.46
1725975030.486;150;40.00;38804.87
1725975030.535;88;40.00;43141.07
1725975030.586;88;40.00;43141.07
1725975030.635;88;40.00;43141.07
1725975030.736;94;40.00;42727.46
1725975030.786;94;40.00;42727.46
1725975030.836;94;40.00;42727.46
1725975030.886;120;40.00;40948.67
1725975031.087;86;40.00;43265.73
1725975031.137;141;40.00;39427.73
1725975031.188;141;40.00;39427.73
1725975031.237;141;40.00;39427.73
1725975031.288;171;40.00;37319.13
1725975031.345;134;40.00;39965.20
1725975031.392;134;40.00;39965.20
1725975031.441;134;40.00;39965.20
1725975031.492;134;40.00;39965.20
1725975031.541;197;40.00;35524.33
1725975031.591;196;40.00;35593.87
1725975031.641;196;40.00;35593.87
1725975031.692;196;40.00;35593.87
1725975031.791;147;40.00;39001.67
1725975031.842;147;40.00;39001.67
1725975031.893;147;40.00;39001.67
1725975031.943;199;40.00;35369.07
1725975031.992;111;40.00;41543.73
1725975032.042;111;40.00;41543.73
1725975032.092;111;40.00;41543.73
1725975032.142;110;40.00;41594.87
1725975032.193;145;40.00;39192.40
1725975032.242;145;40.00;39192.40
1725975032.292;145;40.00;39192.40
1725975032.392;113;40.00;41439.40
1725975032.442;87;40.00;43238.67
1725975032.492;87;40.00;43238.67
1725975032.542;87;40.00;43238.67
1725975032.593;147;40.00;39046.93
1725975032.643;122;40.00;40747.20
1725975032.692;122;40.00;40747.20
1725975032.742;122;40.00;40747.20
1725975032.793;154;40.00;38543.27
1725975032.843;109;40.00;41672.40
1725975032.893;109;40.00;41672.40
1725975032.942;109;40.00;41672.40
1725975032.993;99;40.00;42398.20
1725975033.042;165;40.00;37740.00
1725975033.093;151;40.00;38736.13
1725975033.143;151;40.00;38736.13
1725975033.193;151;40.00;38736.13
1725975033.293;191;40.00;35954.20
1725975033.343;191;40.00;35954.20
1725975033.393;191;40.00;35954.20
1725975033.495;143;40.00;39309.20
1725975033.544;143;40.00;39309.20
1725975033.596;113;40.00;41391.87
1725975045.524;200;40.00;35288.46
1725975045.574;203;40.00;35080.00
1725975045.625;203;40.00;35080.00
1725975045.674;203;40.00;35080.00
1725975045.724;179;40.00;36764.00
1725975045.776;57;40.00;45315.33
1725975045.826;57;40.00;45315.33
1725975045.876;57;40.00;45315.33
1725975045.978;131;40.00;40163.07
1725975046.028;131;40.00;40163.07
1725975046.077;131;40.00;40163.07
1725975046.128;198;40.00;35466.67
1725975046.178;197;40.00;35503.33
1725975046.228;197;40.00;35503.33
1725975046.328;85;40.00;43380.27
1725975046.378;176;40.00;37028.20
1725975046.428;176;40.00;37028.20
1725975046.478;126;40.00;40514.93
1725975046.528;56;40.00;45370.67
1725975046.579;190;40.00;35991.80
1725975046.628;190;40.00;35991.80
1725975046.678;190;40.00;35991.80
1725975046.728;165;40.00;37776.27
1725975046.778;194;40.00;35772.00
1725975046.828;194;40.00;35772.00
1725975046.879;194;40.00;35772.00
1725975046.929;71;40.00;44343.46
1725975047.029;203;40.00;35086.00
1725975047.079;203;40.00;35086.00
1725975047.129;203;40.00;35086.00
1725975047.180;63;40.00;44935.67
1725975047.229;175;40.00;37058.67
1725975047.280;96;40.00;42632.93
1725975047.330;96;40.00;42632.93
1725975047.380;86;40.00;43320.67
1725975047.480;124;40.00;40606.20
1725975047.530;124;40.00;40606.20
1725975047.581;97;40.00;42494.13
1725975047.632;200;40.00;35355.33
1725975047.681;136;40.00;39826.20
1725975047.731;136;40.00;39826.20
1725975047.781;103;40.00;42101.13
1725975047.831;177;40.00;36903.73
1725975047.881;177;40.00;36903.73
1725975047.931;177;40.00;36903.73
1725975047.981;156;40.00;38366.87
1725975048.032;144;40.00;39256.13
1725975048.082;144;40.00;39256.13
1725975048.133;144;40.00;39256.13
1725975048.182;70;40.00;44408.00
1725975048.232;93;40.00;42795.33
1725975048.283;110;40.00;41640.13
1725975048.332;110;40.00;41640.13
1725975048.384;110;40.00;41640.13
1725975048.435;141;40.00;39456.40
1725975048.485;127;40.00;40443.93
1725975048.534;127;40.00;40443.93
1725975048.584;127;40.00;40443.93
1725975048.635;202;40.00;35152.07
1725975048.684;171;40.00;37368.46
1725975048.735;171;40.00;37368.46
1725975048.785;171;40.00;37368.46
1725975048.834;103;40.00;42135.00
1725975048.884;95;40.00;42692.67
1725975048.935;95;40.00;42692.67
1725975048.984;95;40.00;42692.67
1725975049.036;91;40.00;42935.67
1725975049.236;154;40.00;38567.46
1725975049.436;115;40.00;41298.27
1725975049.485;198;40.00;35488.93
1725975049.536;198;40.00;35488.93
1725975049.592;198;40.00;35488.93
1725975049.638;106;40.00;41928.67
1725975049.689;106;40.00;41928.67
1725975049.739;106;40.00;41928.67
1725975049.789;94;40.00;42753.60
1725975049.840;204;40.00;35065.33
1725975049.890;204;40.00;35065.33
1725975049.940;204;40.00;35065.33
1725975049.991;203;40.00;35145.46
1725975050.041;188;40.00;36152.46
1725975050.091;188;40.00;36152.46
1725975050.141;188;40.00;36152.46
1725975050.241;69;40.00;44465.00
1725975050.292;69;40.00;44465.00
1725975050.342;69;40.00;44465.00
1725975050.392;65;40.00;44763.20
1725975050.442;65;40.00;44763.20
1725975050.491;65;40.00;44763.20
1725975050.541;202;40.00;35159.33
1725975050.592;147;40.00;39057.20
1725975050.642;147;40.00;39057.20
1725975050.691;147;40.00;39057.20
1725975050.742;114;40.00;41350.60
1725975305.486;50;24.50;35905.40
1725975305.536;50;24.50;35905.40
1725975305.587;50;24.50;35905.40
1725975305.637;50;24.76;36297.13
1725975305.687;50;25.04;36716.54
1725975305.737;50;25.04;36716.54
1725975305.786;50;25.04;36716.54
1725975305.836;50;24.94;36559.07
1725975305.886;50;27.40;40241.73
1725975305.937;50;27.40;40241.73
1725975305.986;50;26.64;39105.54
1725975306.037;50;26.03;38193.07
1725975306.086;50;24.69;36194.00
1725975306.137;50;24.69;36194.00
1725975306.187;50;28.03;41180.67
1725975306.238;50;26.01;38163.67
1725975306.287;50;25.75;37780.07
1725975306.338;50;25.75;37780.07
1725975306.388;50;26.80;39346.60
1725975306.438;50;24.13;35357.46
1725975306.487;50;24.44;35822.93
1725975306.539;50;24.44;35822.93
1725975306.589;50;24.78;36329.46
1725975306.639;50;27.27;40041.54
1725975306.839;50;23.97;35118.00
1725975306.938;50;24.83;36401.20
1725975306.989;50;24.83;36401.20
1725975307.038;50;24.83;36401.20
1725975307.089;50;24.36;35703.73
1725975307.140;50;24.57;36013.07
1725975307.189;50;24.57;36013.07
1725975307.239;50;26.07;38254.93
1725975307.289;50;25.45;37330.46
1725975307.339;50;25.45;37330.46
1725975307.389;50;25.45;37330.46
1725975307.439;50;24.17;35414.27
1725975307.490;50;25.74;37760.40
1725975307.539;50;25.74;37760.40
1725975307.590;50;25.74;37760.40
1725975307.639;50;26.17;38407.87
1725975307.689;50;29.06;42711.60
1725975307.740;50;29.06;42711.60
1725975307.789;50;29.06;42711.60
1725975307.840;50;24.41;35770.20
1725975307.890;50;24.94;36567.87
1725975307.940;50;24.94;36567.87
1725975307.990;50;24.94;36567.87
1725975308.039;50;24.94;36567.87
1725975308.091;50;24.67;36163.67
1725975308.141;50;24.97;36604.13
1725975308.191;50;24.97;36604.13
1725975308.241;50;24.97;36604.13
1725975308.291;50;28.42;41766.33
1725975308.341;50;26.48;38861.13
1725975308.391;50;26.48;38861.13
1725975308.441;50;28.26;41517.93
1725975308.491;50;25.63;37590.54
1725975308.541;50;25.63;37590.54
1725975308.591;50;25.63;37590.54
1725975308.641;50;29.55;43453.60
1725975308.691;50;27.88;40960.27
1725975308.741;50;27.88;40960.27
1725975308.791;50;27.88;40960.27
1725975308.892;50;24.04;35215.80
1725975308.942;50;24.04;35215.80
1725975308.992;50;24.04;35215.80
1725975309.043;50;24.07;35266.27
1725975309.093;50;28.87;42430.07
1725975309.142;50;28.87;42430.07
1725975309.192;50;28.87;42430.07
1725975309.243;50;28.87;42430.07
1725975309.343;50;26.31;38603.20
1725975309.393;50;26.31;38603.20
1725975309.443;50;26.31;38603.20
1725975309.493;50;23.89;34987.46
1725975309.543;50;27.38;40212.27
1725975309.593;50;28.61;42044.67
1725975309.643;50;28.61;42044.67
1725975309.694;50;27.77;40793.93
1725975309.744;50;24.19;35439.87
1725975309.794;50;27.83;40874.87
1725975309.844;50;27.83;40874.87
1725975309.894;50;27.83;40874.87
1725975309.944;50;28.49;41869.13
1725975309.994;50;25.64;37609.87
1725975310.044;50;25.64;37609.87
1725975310.094;50;25.64;37609.87
1725975310.144;50;24.86;36442.54
1725975310.194;50;24.58;36019.13
1725975310.244;50;24.58;36019.13
1725975310.294;50;24.58;36019.13
1725975310.394;50;27.09;39771.46
1725975310.444;50;27.09;39771.46
1725975310.494;50;27.09;39771.46
1725975310.550;50;26.56;38988.07
1725975310.597;50;29.63;43566.07
1725975310.648;50;29.63;43566.07
1725975310.699;50;29.63;43566.07
1725975310.749;50;26.56;38986.13
1725975322.865;50;25.11;36822.67
1725975322.914;50;25.87;37955.07
1725975322.964;50;25.87;37955.07
1725975323.015;50;25.87;37955.07
1725975323.065;50;25.02;36676.93
1725975323.114;50;25.03;36697.13
1725975323.164;50;25.03;36697.13
1725975323.215;50;25.03;36697.13
1725975323.265;50;27.13;39833.00
1725975323.315;50;29.46;43318.87
1725975323.365;50;29.46;43318.87
1725975323.415;50;29.46;43318.87
1725975323.465;50;25.82;37875.20
1725975323.514;50;24.49;35894.00
1725975323.565;50;24.49;35894.00
1725975323.615;50;24.49;35894.00
1725975323.666;50;28.23;41479.20
1725975323.715;50;24.75;36280.00
1725975323.766;50;24.75;36282.13
1725975323.816;50;24.75;36282.13
1725975323.866;50;24.75;36282.13
1725975323.916;50;25.37;37210.80
1725975323.966;50;26.45;38820.87
1725975324.015;50;26.51;38914.40
1725975324.066;50;26.51;38914.40
1725975324.116;50;25.55;37472.54
1725975324.216;50;25.24;37016.93
1725975324.266;50;25.24;37016.93
1725975324.317;50;25.24;37016.93
1725975324.366;50;28.18;41397.33
1725975324.417;50;25.16;36891.07
1725975324.468;50;25.16;36891.07
1725975324.518;50;25.16;36891.07
1725975324.569;50;24.77;36304.27
1725975324.618;50;27.07;39744.20
1725975324.668;50;27.07;39744.20
1725975324.719;50;28.78;42300.20
1725975324.768;50;26.37;38695.54
1725975324.819;50;25.91;38006.40
1725975324.869;50;25.91;38006.40
1725975324.919;50;25.91;38006.40
1725975324.969;50;29.13;42830.40
1725975325.020;50;28.14;41344.00
1725975325.070;50;28.14;41344.00
1725975325.119;50;28.14;41344.00
1725975325.169;50;25.89;37983.54
1725975325.220;50;24.65;36125.87
1725975325.271;50;24.65;36125.87
1725975325.320;50;24.65;36125.87
1725975325.371;50;24.03;35202.73
1725975325.421;50;27.66;40633.73
1725975325.471;50;27.66;40633.73
1725975325.521;50;27.66;40633.73
1725975325.571;50;27.52;40413.67
1725975325.621;50;26.98;39607.80
1725975325.672;50;26.98;39607.80
1725975325.722;50;26.98;39607.80
1725975325.773;50;25.73;37748.67
1725975325.822;50;28.59;42021.87
1725975325.872;50;28.59;42021.87
1725975325.922;50;28.59;42021.87
1725975325.972;50;26.93;39532.73
1725975326.023;50;28.74;42238.80
1725975326.072;50;28.74;42238.80
1725975326.122;50;28.74;42238.80
1725975326.173;50;29.05;42704.40
1725975326.223;50;29.45;43303.13
1725975326.274;50;29.45;43303.13
1725975326.324;50;29.45;43303.13
1725975326.374;50;29.30;43073.46
1725975326.424;50;24.99;36638.00
1725975326.474;50;24.99;36638.00
1725975326.524;50;24.99;36638.00
1725975326.574;50;28.17;41392.80
1725975326.624;50;24.27;35561.60
1725975326.674;50;24.27;35561.60
1725975326.724;50;24.27;35561.60
1725975326.775;50;28.62;42065.13
1725975326.824;50;24.01;35171.20
1725975326.875;50;24.01;35171.20
1725975326.924;50;24.01;35171.20
1725975326.975;50;28.22;41470.27
1725975327.025;50;29.72;43712.33
1725975327.075;50;29.72;43712.33
1725975327.125;50;29.72;43712.33
1725975327.175;50;27.06;39723.27
1725975327.226;50;25.38;37224.54
1725975327.275;50;25.38;37224.54
1725975327.325;50;25.38;37224.54
1725975327.376;50;26.96;39587.00
1725975327.426;50;25.78;37817.33
1725975327.476;50;25.78;37817.33
1725975327.525;50;25.78;37817.33
1725975327.577;50;23.90;35010.54
1725975327.626;50;28.59;42010.27
1725975327.676;50;28.59;42010.27
1725975327.727;50;26.00;38149.80
1725975327.777;50;27.09;39776.60
1725975327.827;50;24.51;35927.27
1725975327.877;50;24.51;35927.27
1725975327.927;50;24.51;35927.27
1725975327.978;50;27.94;41044.46
1725975328.027;50;24.60;36057.73
1725975328.078;50;24.60;36057.73
1725975328.128;50;24.60;36057.73
1725975328.178;50;24.70;36210.00
1725975340.170;50;24.54;35967.73
1725975340.221;50;24.94;36556.67
1725975340.271;50;24.94;36556.67
1725975340.321;50;24.94;36556.67
1725975340.371;50;25.80;37852.40
1725975340.420;50;29.04;42689.27
1725975340.470;50;29.04;42689.27
1725975340.522;50;29.11;42788.00
1725975340.571;50;25.98;38116.80
1725975340.773;50;27.42;40275.87
1725975340.823;50;25.06;36741.67
1725975340.872;50;25.06;36741.67
1725975340.924;50;24.13;35347.33
1725975340.974;50;24.69;36196.33
1725975341.025;50;25.44;37309.80
1725975341.074;50;25.44;37309.80
1725975341.125;50;25.44;37309.80
1725975341.174;50;25.71;37719.54
1725975341.376;50;24.49;35887.60
1725975341.426;50;26.72;39217.00
1725975341.476;50;26.72;39217.00
1725975341.525;50;26.72;39217.00
1725975341.575;50;24.20;35461.73
1725975341.625;50;27.17;39891.20
1725975341.675;50;26.02;38174.27
1725975341.726;50;26.02;38174.27
1725975341.776;50;26.02;38174.27
1725975341.827;50;26.02;38174.27
1725975341.877;50;25.42;37274.54
1725975341.927;50;23.99;35143.73
1725975341.978;50;23.99;35143.73
1725975342.028;50;23.99;35143.73
1725975342.127;50;25.28;37074.40
1725975342.177;50;25.28;37074.40
1725975342.227;50;25.28;37074.40
1725975342.278;50;25.28;37074.40
1725975342.327;50;25.86;37936.00
1725975342.378;50;25.86;37936.00
1725975342.428;50;25.86;37936.00
1725975342.478;50;25.68;37663.93
1725975342.528;50;26.04;38201.33
1725975342.578;50;26.27;38543.60
1725975342.630;50;26.27;38543.60
1725975342.679;50;26.27;38543.60
1725975342.730;50;28.00;41131.80
1725975342.780;50;26.78;39312.20
1725975342.830;50;25.13;36846.27
1725975342.880;50;25.13;36846.27
1725975342.929;50;25.13;36846.27
1725975342.980;50;28.29;41565.67
1725975343.030;50;27.69;40666.73
1725975343.080;50;27.69;40666.73
1725975343.130;50;25.20;36956.40
1725975343.179;50;26.09;38276.40
1725975343.230;50;27.64;40591.20
1725975343.280;50;27.64;40591.20
1725975343.330;50;27.67;40637.87
1725975343.380;50;25.65;37630.40
1725975343.430;50;26.87;39439.67
1725975343.480;50;26.87;39439.67
1725975343.530;50;26.87;39439.67
1725975343.583;50;26.13;38342.33
1725975343.634;50;28.21;41454.54
1725975343.684;50;26.62;39077.80
1725975343.734;50;26.62;39077.80
1725975343.784;50;26.62;39077.80
1725975343.834;50;26.76;39278.46
1725975343.885;50;25.89;37985.46
1725975343.935;50;27.82;40867.00
1725975343.984;50;27.82;40867.00
1725975344.035;50;25.23;36996.93
1725975344.085;50;28.94;42542.27
1725975344.135;50;24.70;36209.73
1725975344.186;50;24.70;36209.73
1725975344.235;50;24.70;36209.73
1725975344.286;50;26.97;39595.20
1725975344.336;50;27.54;40445.13
1725975344.386;50;27.54;40445.13
1725975344.435;50;27.54;40445.13
1725975344.486;50;28.12;41311.07
1725975344.536;50;24.88;36472.13
1725975344.585;50;24.88;36472.13
1725975344.636;50;24.88;36472.13
1725975344.686;50;24.81;36368.54
1725975344.737;50;26.42;38772.54
1725975344.787;50;26.42;38772.54
1725975344.836;50;26.42;38772.54
1725975344.888;50;23.97;35110.40
1725975344.937;50;25.10;36797.27
1725975344.988;50;25.10;36797.27
1725975345.037;50;25.03;36690.54
1725975345.087;50;28.05;41204.87
1725975345.139;50;26.77;39304.33
1725975345.189;50;26.77;39304.33
1725975345.239;50;26.77;39304.33
1725975345.289;50;26.54;38952.93
1725975345.340;50;29.34;43133.13
1725975345.390;50;29.34;43133.13
1725975345.439;50;29.34;43133.13
1725975345.490;50;24.62;36081.33
1725975345.540;50;25.98;38120.73
1725975345.589;50;25.98;38120.73
1725975345.639;50;25.98;38120.73
1725975345.691;50;24.26;35552.46
1725975345.741;50;26.35;38663.73
