UnixTimestamp;Microseconds;MilliAmpere;BaseValue
1725361921.853;500;1.00
1725361921.901;500;1.00
1725361921.951;500;1.00
1725361922.001;500;1.00
1725361922.052;500;1.00
1725361922.103;500;1.00
1725361922.152;500;1.00
1725361922.202;500;1.00
1725361922.253;500;1.00
1725361922.303;500;1.00
1725361922.354;500;1.00
1725361922.404;500;1.00
1725361922.454;500;1.00
1725361922.505;500;1.00
1725361922.555;500;1.00
1725361925.700;1;40.00
1725361925.751;1;40.00
1725361925.802;1;40.00
1725361925.851;1;40.00
1725361925.902;1;40.00
1725361925.953;1;40.00
1725361926.003;1;40.00
1725361926.053;1;40.00
1725361926.103;1;40.00
1725361926.153;1;40.00
1725361926.203;1;40.00
1725361926.254;1;40.00
1725361926.304;1;40.00
1725361926.354;1;40.00
1725361926.404;1;40.00
1725361926.454;1;40.00
1725361926.504;1;40.00
1725361926.555;1;40.00
1725361926.604;1;40.00
1725361926.655;1;40.00
1725361926.705;1;40.00
1725362054.305;119;20.00;34407.67
1725362054.355;120;20.00;34300.00
1725362054.405;117;20.00;34508.54
1725362054.455;117;20.00;34508.54
1725362054.505;117;20.00;34508.54
1725362054.605;48;20.00;40246.13
1725362054.656;36;20.00;41248.80
1725362054.705;36;20.00;41248.80
1725362054.755;36;20.00;41248.80
1725362054.855;104;20.00;35623.87
1725362054.906;95;20.00;36311.73
1725362054.955;95;20.00;36311.73
1725362055.005;95;20.00;36311.73
1725362055.055;121;20.00;34172.54
1725362055.106;121;20.00;34242.13
1725362055.156;121;20.00;34242.13
1725362055.207;121;20.00;34242.13
1725362055.256;121;20.00;34242.13
1725362055.306;54;20.00;39701.33
1725362055.357;114;20.00;34770.80
1725362055.406;114;20.00;34770.80
1725362055.457;114;20.00;34770.80
1725362055.506;114;20.00;34770.80
1725362055.557;118;20.00;34473.20
1725362055.606;111;20.00;35003.27
1725362055.657;107;20.00;35385.67
1725362055.706;107;20.00;35385.67
1725362055.756;107;20.00;35385.67
1725362055.807;32;20.00;41550.93
1725362055.857;93;20.00;36504.67
1725362055.906;73;20.00;38180.80
1725362055.957;73;20.00;38180.80
1725362056.006;73;20.00;38180.80
1725362056.057;96;20.00;36257.20
1725362056.107;60;20.00;39239.13
1725362056.157;60;20.00;39239.13
1725362056.206;60;20.00;39239.13
1725362056.258;60;20.00;39239.13
1725362056.308;57;20.00;39464.40
1725362056.357;117;20.00;34550.87
1725362056.408;101;20.00;35843.73
1725362056.658;76;20.00;37886.13
1725362056.758;120;20.00;34299.13
1725362056.808;120;20.00;34299.13
1725362056.858;120;20.00;34299.13
1725362056.908;121;20.00;34189.40
1725362056.958;115;20.00;34684.54
1725362057.007;84;20.00;37296.80
1725362057.058;84;20.00;37296.80
1725362057.108;84;20.00;37296.80
1725362057.158;84;20.00;37296.80
1725362057.207;56;20.00;39581.20
1725362057.259;84;20.00;37268.13
1725362057.308;84;20.00;37268.13
1725362057.359;84;20.00;37268.13
1725362057.408;84;20.00;37268.13
1725362057.459;61;20.00;39111.60
1725362057.508;54;20.00;39723.46
1725362057.558;102;20.00;35797.20
1725362057.608;102;20.00;35797.20
1725362057.658;102;20.00;35797.20
1725362057.708;92;20.00;36569.60
1725362057.758;98;20.00;36081.07
1725362057.809;74;20.00;38062.40
1725362057.858;115;20.00;34694.67
1725362057.909;115;20.00;34694.67
1725362057.960;115;20.00;34694.67
1725362058.009;115;20.00;34694.67
1725362058.059;117;20.00;34566.67
1725362058.111;103;20.00;35694.54
1725362058.161;112;20.00;34948.40
1725362058.211;121;20.00;34197.33
1725362058.261;121;20.00;34197.33
1725362058.311;121;20.00;34197.33
1725362058.361;32;20.00;41545.07
1725362058.411;58;20.00;39402.13
1725362058.461;94;20.00;36417.20
1725362058.511;94;20.00;36417.20
1725362058.561;94;20.00;36417.20
1725362058.611;101;20.00;35882.54
1725362058.662;116;20.00;34615.73
1725362058.712;54;20.00;39688.54
1725362058.762;54;20.00;39688.54
1725362058.812;54;20.00;39688.54
1725362058.862;103;20.00;35652.54
1725362058.912;93;20.00;36506.93
1725362058.962;83;20.00;37367.73
1725362059.012;83;20.00;37367.73
1725362059.063;83;20.00;37367.73
1725362059.112;89;20.00;36807.46
1725362059.162;78;20.00;37782.27
1725362059.213;98;20.00;36109.20
1725362059.263;98;20.00;36109.20
1725362059.313;98;20.00;36109.20
1725362059.413;87;20.00;37035.46
1725362059.462;86;20.00;37119.46
1725362059.514;63;20.00;38958.27
1725362059.564;63;20.00;38958.27
1725362059.615;63;20.00;38958.27
1725362059.664;63;20.00;38958.27
1725362059.714;99;20.00;36010.40
1725362059.764;119;20.00;34392.67
1725362059.814;90;20.00;36726.13
1725362059.863;90;20.00;36726.13
1725362059.913;90;20.00;36726.13
1725362059.965;79;20.00;37664.54
1725362060.015;109;20.00;35212.27
1725362060.065;97;20.00;36193.46
1725362060.115;104;20.00;35636.80
1725362060.165;104;20.00;35636.80
1725362060.215;104;20.00;35636.80
1725362060.265;102;20.00;35800.00
1725362060.315;79;20.00;37669.20
1725362060.365;101;20.00;35844.40
1725362060.415;30;20.00;41664.27
1725362060.465;30;20.00;41664.27
1725362060.515;30;20.00;41664.27
1725362060.565;54;20.00;39706.40
1725362060.615;101;20.00;35885.93
1725362060.666;73;20.00;38170.80
1725362060.715;86;20.00;37091.46
1725362060.766;86;20.00;37091.46
1725362060.816;86;20.00;37091.46
1725362060.867;89;20.00;36818.67
1725362060.916;55;20.00;39648.80
1725362060.967;62;20.00;39071.33
1725362075.883;107;20.00;35327.46
1725362076.135;121;20.00;34204.13
1725362076.185;121;20.00;34204.13
1725362076.235;121;20.00;34204.13
1725362076.285;121;20.00;34204.13
1725362076.586;65;20.00;38812.00
1725362076.887;78;20.00;37771.00
1725362076.937;119;20.00;34352.46
1725362076.987;119;20.00;34352.46
1725362077.037;119;20.00;34352.46
1725362077.087;119;20.00;34352.46
1725362077.187;107;20.00;35348.54
1725362077.237;96;20.00;36256.54
1725362077.287;96;20.00;36256.54
1725362077.337;96;20.00;36256.54
1725362077.387;101;20.00;35830.00
1725362077.437;34;20.00;41410.93
1725362077.487;43;20.00;40665.07
1725362077.537;108;20.00;35305.60
1725362077.588;108;20.00;35305.60
1725362077.638;108;20.00;35305.60
1725362077.688;64;20.00;38896.54
1725362077.738;68;20.00;38579.54
1725362077.789;104;20.00;35597.00
1725362077.839;104;20.00;35597.00
1725362077.888;104;20.00;35597.00
1725362077.939;104;20.00;35597.00
1725362077.989;63;20.00;38970.13
1725362078.040;116;20.00;34582.40
1725362078.089;86;20.00;37077.60
1725362078.139;63;20.00;38959.20
1725362078.190;63;20.00;38959.20
1725362078.239;63;20.00;38959.20
1725362078.289;103;20.00;35714.13
1725362078.340;96;20.00;36300.67
1725362078.391;82;20.00;37445.07
1725362078.441;82;20.00;37445.07
1725362078.491;82;20.00;37445.07
1725362078.540;82;20.00;37445.07
1725362078.641;77;20.00;37816.27
1725362078.691;87;20.00;37015.73
1725362078.741;87;20.00;37015.73
1725362078.791;87;20.00;37015.73
1725362078.842;87;20.00;37015.73
1725362078.892;52;20.00;39912.54
1725362078.941;95;20.00;36380.54
1725362078.992;34;20.00;41374.93
1725362079.042;34;20.00;41374.93
1725362079.092;34;20.00;41374.93
1725362079.142;34;20.00;41374.93
1725362079.192;86;20.00;37107.60
1725362079.244;107;20.00;35323.20
1725362079.294;107;20.00;35323.20
1725362079.344;107;20.00;35323.20
1725362079.394;107;20.00;35323.20
1725362079.443;83;20.00;37308.54
1725362079.494;109;20.00;35237.54
1725362079.544;73;20.00;38166.80
1725362079.594;73;20.00;38166.80
1725362079.644;73;20.00;38166.80
1725362079.694;73;20.00;38166.80
1725362079.744;83;20.00;37368.40
1725362079.795;109;20.00;35210.00
1725362079.845;75;20.00;37989.46
1725362079.895;90;20.00;36748.13
1725362079.945;119;20.00;34336.40
1725362079.995;119;20.00;34336.40
1725362080.045;119;20.00;34336.40
1725362080.095;68;20.00;38547.80
1725362080.145;68;20.00;38562.00
1725362080.195;67;20.00;38616.20
1725362080.245;120;20.00;34251.60
1725362080.296;120;20.00;34251.60
1725362080.346;120;20.00;34251.60
1725362080.396;48;20.00;40221.87
1725362080.445;103;20.00;35715.87
1725362080.496;103;20.00;35666.27
1725362080.546;103;20.00;35666.27
1725362080.596;103;20.00;35666.27
1725362080.696;102;20.00;35762.93
1725362080.746;68;20.00;38551.87
1725362080.796;62;20.00;39093.33
1725362080.847;62;20.00;39093.33
1725362080.896;62;20.00;39093.33
1725362080.946;47;20.00;40340.80
1725362080.996;36;20.00;41180.80
1725362081.046;117;20.00;34525.07
1725362081.096;99;20.00;36002.40
1725362081.146;75;20.00;38017.87
1725362081.196;75;20.00;38017.87
1725362081.246;75;20.00;38017.87
1725362081.296;97;20.00;36188.00
1725362081.346;115;20.00;34712.13
1725362081.396;99;20.00;35983.54
1725362081.597;80;20.00;37616.54
1725362081.647;35;20.00;41325.87
1725362081.898;105;20.00;35557.60
1725362081.998;91;20.00;36649.87
1725362082.047;91;20.00;36649.87
1725362082.098;91;20.00;36649.87
1725362082.147;91;20.00;36649.87
1725362082.198;43;20.00;40632.00
1725362082.247;97;20.00;36188.80
1725362082.297;81;20.00;37534.07
1725362082.348;81;20.00;37534.07
1725362082.398;81;20.00;37534.07
1725362082.448;81;20.00;37534.07
1725362082.497;78;20.00;37760.40
1725362082.548;78;20.00;37721.60
1725362082.598;78;20.00;37721.60
1725362082.648;78;20.00;37721.60
1725362082.697;78;20.00;37721.60
1725362082.748;74;20.00;38054.54
1725362082.798;88;20.00;36928.54
1725362082.847;62;20.00;39064.80
1725362082.898;62;20.00;39064.80
1725362082.948;62;20.00;39064.80
1725362082.997;62;20.00;39064.80
1725362083.048;51;20.00;39960.54
1725362083.098;66;20.00;38761.33
1725362083.148;96;20.00;36265.60
1725362083.198;107;20.00;35344.80
1725362099.862;120;20.00;34250.54
1725362099.914;120;20.00;34250.54
1725362100.213;89;20.00;36874.93
1725362101.065;117;20.00;34575.60
1725362101.115;117;20.00;34575.60
1725362101.165;118;20.00;34443.60
1725362101.266;114;20.00;34788.93
1725362101.315;104;20.00;35578.87
1725362101.366;104;20.00;35578.87
1725362101.415;104;20.00;35578.87
1725362101.515;92;20.00;36560.54
1725362101.566;47;20.00;40271.46
1725362101.616;47;20.00;40271.46
1725362101.666;47;20.00;40271.46
1725362101.716;62;20.00;39109.07
1725362101.767;83;20.00;37316.80
1725362101.816;58;20.00;39402.93
1725362101.867;58;20.00;39402.93
1725362101.917;58;20.00;39402.93
1725362101.966;103;20.00;35713.33
1725362102.016;117;20.00;34524.40
1725362102.067;58;20.00;39381.87
1725362102.116;58;20.00;39381.87
1725362102.167;58;20.00;39381.87
1725362102.217;64;20.00;38882.40
1725362102.267;93;20.00;36556.00
1725362102.317;117;20.00;34540.80
1725362102.367;117;20.00;34528.13
1725362102.418;117;20.00;34528.13
1725362102.468;117;20.00;34528.13
1725362102.519;53;20.00;39818.00
1725362102.569;112;20.00;34947.33
1725362102.619;46;20.00;40411.46
1725362102.669;51;20.00;39944.27
1725362102.720;51;20.00;39944.27
1725362102.769;51;20.00;39944.27
1725362102.819;80;20.00;37566.93
1725362102.869;89;20.00;36836.27
1725362102.919;103;20.00;35693.33
1725362102.969;103;20.00;35693.33
1725362103.019;103;20.00;35693.33
1725362103.069;74;20.00;38093.07
1725362103.120;96;20.00;36244.80
1725362103.169;118;20.00;34480.27
1725362103.220;118;20.00;34480.27
1725362103.271;118;20.00;34480.27
1725362103.321;116;20.00;34656.27
1725362103.371;81;20.00;37521.20
1725362103.421;100;20.00;35924.40
1725362103.470;100;20.00;35924.40
1725362103.521;100;20.00;35924.40
1725362103.620;32;20.00;41562.40
1725362103.671;61;20.00;39176.54
1725362103.721;61;20.00;39176.54
1725362103.771;61;20.00;39176.54
1725362103.871;80;20.00;37598.93
1725362103.921;80;20.00;37598.93
1725362103.971;80;20.00;37598.93
1725362104.021;81;20.00;37500.80
1725362104.071;94;20.00;36403.20
1725362104.121;90;20.00;36778.67
1725362104.170;90;20.00;36778.67
1725362104.221;90;20.00;36778.67
1725362104.271;35;20.00;41262.67
1725362104.321;111;20.00;35034.27
1725362104.371;76;20.00;37915.07
1725362104.421;76;20.00;37915.07
1725362104.470;76;20.00;37915.07
1725362104.521;111;20.00;35051.46
1725362104.571;68;20.00;38562.93
1725362104.622;65;20.00;38854.93
1725362104.671;65;20.00;38854.93
1725362104.722;65;20.00;38854.93
1725362104.771;106;20.00;35471.73
1725362104.823;48;20.00;40205.07
1725362104.872;82;20.00;37436.00
1725362104.923;87;20.00;37010.40
1725362104.972;87;20.00;37010.40
1725362105.022;87;20.00;37010.40
1725362105.073;48;20.00;40224.80
1725362105.123;103;20.00;35675.20
1725362105.172;52;20.00;39865.87
1725362105.223;52;20.00;39865.87
1725362105.272;52;20.00;39865.87
1725362105.323;86;20.00;37052.80
1725362105.373;111;20.00;35015.87
1725362105.573;100;20.00;35952.27
1725362105.624;70;20.00;38373.07
1725362105.924;45;20.00;40457.87
1725362348.187;122;10.00;34154.67
1725362348.236;117;10.00;34556.80
1725362348.286;117;10.00;34556.80
1725362348.336;117;10.00;34556.80
1725362348.387;108;10.00;35298.40
1725362348.437;105;10.00;35543.87
1725362348.487;110;10.00;35089.87
1725362348.537;110;10.00;35089.87
1725362348.587;110;10.00;35089.87
1725362348.637;119;10.00;34343.87
1725362348.687;119;10.00;34343.87
1725362348.738;119;10.00;34343.87
1725362348.838;99;10.00;36026.40
1725362348.888;107;10.00;35352.40
1725362348.938;107;10.00;35352.40
1725362348.988;107;10.00;35352.40
1725362349.038;107;10.00;35352.40
1725362349.088;114;10.00;34819.46
1725362349.188;108;10.00;35308.20
1725362349.238;115;10.00;34686.46
1725362349.288;115;10.00;34686.46
1725362349.339;115;10.00;34686.46
1725362349.389;115;10.00;34686.46
1725362349.439;103;10.00;35719.73
1725362349.539;46;10.00;40385.07
1725362349.588;46;10.00;40385.07
1725362349.639;46;10.00;40385.07
1725362349.688;76;10.00;37916.54
1725362349.739;112;10.00;34962.46
1725362349.789;92;10.00;36565.60
1725362349.840;85;10.00;37138.93
1725362349.891;85;10.00;37138.93
1725362349.940;85;10.00;37138.93
1725362350.042;103;10.00;35658.00
1725362350.292;109;10.00;35190.93
1725362350.392;121;10.00;34236.87
1725362350.442;115;10.00;34668.93
1725362350.492;115;10.00;34668.93
1725362350.542;115;10.00;34668.93
1725362350.593;113;10.00;34890.93
1725362350.643;102;10.00;35736.80
1725362350.693;120;10.00;34266.40
1725362350.743;66;10.00;38778.93
1725362350.793;66;10.00;38778.93
1725362350.844;66;10.00;38778.93
1725362350.894;103;10.00;35691.46
1725362350.944;73;10.00;38155.73
1725362350.994;112;10.00;34940.80
1725362351.046;118;10.00;34487.20
1725362351.095;118;10.00;34487.20
1725362351.146;118;10.00;34487.20
1725362351.245;46;10.00;40424.27
1725362351.295;46;10.00;40424.27
1725362351.345;46;10.00;40424.27
1725362351.395;59;10.00;39293.33
1725362351.446;118;10.00;34417.33
1725362351.496;88;10.00;36912.80
1725362351.546;97;10.00;36202.27
1725362351.596;97;10.00;36202.27
1725362351.646;97;10.00;36202.27
1725362351.696;86;10.00;37067.20
1725362351.747;51;10.00;39991.46
1725362351.797;59;10.00;39305.33
1725362351.846;79;10.00;37630.93
1725362351.897;79;10.00;37630.93
1725362351.948;79;10.00;37630.93
1725362351.998;80;10.00;37583.46
1725362352.047;58;10.00;39374.40
1725362352.099;77;10.00;37863.73
1725362352.148;77;10.00;37863.73
1725362352.199;77;10.00;37863.73
1725362352.248;77;10.00;37863.73
1725362352.299;84;10.00;37240.13
1725362352.349;55;10.00;39668.73
1725362352.399;62;10.00;39086.13
1725362352.449;62;10.00;39086.13
1725362352.499;62;10.00;39086.13
1725362352.549;62;10.00;39086.13
1725362352.599;109;10.00;35192.27
1725362352.649;84;10.00;37236.27
1725362352.700;73;10.00;38192.27
1725362352.750;113;10.00;34900.27
1725362352.799;113;10.00;34900.27
1725362352.850;113;10.00;34900.27
1725362352.950;40;10.00;40857.33
1725362353.000;58;10.00;39374.00
1725362353.050;80;10.00;37589.60
1725362353.099;80;10.00;37589.60
1725362353.149;80;10.00;37589.60
1725362353.200;80;10.00;37589.60
1725362353.249;115;10.00;34691.46
1725362353.300;101;10.00;35840.00
1725362353.350;91;10.00;36718.80
1725362353.399;103;10.00;35677.07
1725362353.450;103;10.00;35677.07
1725362353.500;103;10.00;35677.07
1725362353.549;117;10.00;34504.80
1725362353.599;86;10.00;37114.27
1725362353.650;51;10.00;39994.40
1725362353.701;56;10.00;39544.00
1725362353.751;113;10.00;34862.93
1725362353.801;113;10.00;34862.93
1725362353.851;113;10.00;34862.93
1725362353.901;115;10.00;34689.60
1725362353.951;115;10.00;34669.60
1725362354.001;95;10.00;36351.87
1725362354.051;97;10.00;36187.73
1725362354.101;97;10.00;36187.73
1725362354.151;97;10.00;36187.73
1725362354.201;78;10.00;37730.93
1725362354.251;110;10.00;35155.20
1725362354.301;68;10.00;38569.07
1725362354.351;68;10.00;38569.07
1725362354.401;68;10.00;38569.07
1725362354.452;73;10.00;38136.54
1725362354.502;116;10.00;34654.27
1725362354.555;52;10.00;39878.13
1725362354.603;52;10.00;39878.13
1725362354.653;52;10.00;39878.13
1725362354.703;52;10.00;39878.13
1725362354.754;52;10.00;39872.54
1725362354.804;83;10.00;37363.46
1725362354.853;78;10.00;37770.13
1725362354.904;106;10.00;35409.20
1725362354.954;106;10.00;35409.20
1725362355.005;106;10.00;35409.20
1725362355.055;106;10.00;35409.20
1725362355.105;77;10.00;37811.87
1725362355.155;67;10.00;38692.80
1725362355.205;67;10.00;38633.93
1725362373.314;117;10.00;34516.80
1725362373.364;111;10.00;35048.93
1725362373.414;115;10.00;34734.27
1725362373.464;115;10.00;34734.27
1725362373.514;115;10.00;34734.27
1725362373.564;72;10.00;38279.46
1725362373.614;64;10.00;38918.13
1725362373.664;65;10.00;38842.13
1725362373.715;65;10.00;38842.13
1725362373.764;65;10.00;38842.13
1725362373.814;87;10.00;36992.46
1725362373.864;59;10.00;39278.93
1725362373.924;81;10.00;37505.33
1725362373.970;78;10.00;37789.33
1725362374.021;78;10.00;37789.33
1725362374.071;78;10.00;37789.33
1725362374.120;58;10.00;39425.87
1725362374.171;100;10.00;35917.33
1725362374.221;53;10.00;39785.33
1725362374.271;53;10.00;39785.33
1725362374.322;53;10.00;39785.33
1725362374.371;53;10.00;39785.33
1725362374.422;96;10.00;36269.73
1725362374.472;85;10.00;37213.33
1725362374.522;85;10.00;37158.40
1725362374.572;85;10.00;37158.40
1725362374.623;85;10.00;37158.40
1725362374.673;85;10.00;37158.40
1725362374.773;71;10.00;38325.73
1725362374.823;73;10.00;38169.60
1725362374.874;73;10.00;38169.60
1725362374.924;73;10.00;38169.60
1725362374.974;73;10.00;38169.60
1725362375.023;116;10.00;34590.40
1725362375.074;75;10.00;38022.60
1725362375.124;81;10.00;37527.46
1725362375.175;91;10.00;36647.40
1725362375.225;91;10.00;36647.40
1725362375.275;91;10.00;36647.40
1725362375.326;95;10.00;36380.27
1725362375.376;109;10.00;35169.33
1725362375.426;82;10.00;37393.60
1725362375.476;75;10.00;37962.67
1725362375.526;75;10.00;37962.67
1725362375.575;75;10.00;37962.67
1725362375.626;75;10.00;37962.67
1725362375.676;60;10.00;39270.13
1725362375.726;74;10.00;38106.67
1725362376.026;71;10.00;38325.07
1725362376.278;113;10.00;34895.07
1725362376.327;119;10.00;34337.60
1725362376.578;38;10.00;41072.00
1725362376.630;38;10.00;41072.00
1725362376.678;122;10.00;34156.13
1725362376.729;122;10.00;34156.13
1725362376.779;122;10.00;34156.13
1725362376.829;108;10.00;35248.27
1725362376.879;117;10.00;34498.40
1725362376.930;97;10.00;36151.73
1725362376.979;57;10.00;39450.40
1725362377.030;57;10.00;39450.40
1725362377.080;57;10.00;39450.40
1725362377.130;95;10.00;36340.27
1725362377.180;57;10.00;39458.67
1725362377.230;67;10.00;38642.40
1725362377.280;99;10.00;36007.73
1725362377.330;99;10.00;36007.73
1725362377.380;99;10.00;36007.73
1725362377.430;74;10.00;38052.80
1725362377.480;81;10.00;37502.67
1725362377.529;79;10.00;37683.73
1725362377.581;104;10.00;35643.60
1725362377.631;104;10.00;35643.60
1725362377.681;104;10.00;35643.60
1725362377.731;64;10.00;38917.20
1725362377.780;117;10.00;34506.60
1725362377.832;57;10.00;39466.40
1725362377.882;57;10.00;39466.40
1725362377.933;57;10.00;39466.40
1725362377.983;57;10.00;39466.40
1725362378.032;68;10.00;38574.40
1725362378.083;57;10.00;39513.07
1725362378.133;108;10.00;35295.20
1725362378.183;108;10.00;35295.20
1725362378.232;108;10.00;35295.20
1725362378.284;108;10.00;35295.20
1725362378.334;110;10.00;35111.46
1725362378.385;61;10.00;39148.27
1725362378.435;57;10.00;39467.73
1725362378.485;57;10.00;39467.73
1725362378.536;57;10.00;39467.73
1725362378.586;85;10.00;37163.46
1725362378.635;77;10.00;37867.27
1725362378.686;108;10.00;35313.60
1725362378.737;78;10.00;37762.93
1725362378.786;78;10.00;37762.93
1725362378.836;78;10.00;37762.93
1725362378.887;78;10.00;37762.93
1725362378.936;109;10.00;35202.40
1725362378.987;120;10.00;34310.27
1725362379.037;54;10.00;39766.07
1725362379.238;64;10.00;38929.60
1725362379.288;106;10.00;35448.27
1725362379.337;108;10.00;35300.07
1725362379.388;98;10.00;36113.33
1725362379.437;98;10.00;36113.33
1725362379.488;98;10.00;36113.33
1725362379.538;98;10.00;36113.33
1725362379.589;64;10.00;38910.40
1725362379.639;64;10.00;38883.60
1725362379.689;55;10.00;39647.13
1725362379.739;55;10.00;39647.13
1725362379.790;55;10.00;39647.13
1725362379.840;55;10.00;39647.13
1725362379.891;58;10.00;39394.40
1725362379.941;78;10.00;37741.46
1725362379.991;115;10.00;34702.93
1725362380.041;95;10.00;36367.73
1725362380.091;95;10.00;36367.73
1725362380.141;95;10.00;36367.73
1725362380.191;95;10.00;36367.73
1725362380.243;109;10.00;35236.87
1725362380.293;70;10.00;38384.00
1725362380.343;74;10.00;38069.60
1725362380.393;74;10.00;38069.60
1725362380.443;74;10.00;38069.60
1725362380.493;57;10.00;39487.60
1725362380.543;82;10.00;37447.73
1725362380.794;119;10.00;34360.54
1725362380.843;62;10.00;39109.87
1725362380.893;112;10.00;34968.93
1725362380.943;101;10.00;35872.00
1725362399.724;118;10.00;34446.27
1725362399.824;118;10.00;34441.73
1725362399.874;114;10.00;34756.93
1725362399.924;114;10.00;34756.93
1725362399.973;114;10.00;34756.93
1725362400.025;117;10.00;34499.13
1725362400.075;115;10.00;34706.27
1725362400.125;107;10.00;35332.93
1725362400.175;121;10.00;34240.00
1725362400.225;121;10.00;34240.00
1725362400.275;121;10.00;34240.00
1725362400.325;121;10.00;34240.00
1725362400.375;112;10.00;34947.93
1725362400.476;47;10.00;40300.27
1725362400.525;48;10.00;40196.54
1725362400.575;48;10.00;40196.54
1725362400.626;48;10.00;40196.54
1725362400.676;48;10.00;40196.54
1725362400.726;73;10.00;38192.80
1725362400.776;105;10.00;35545.87
1725362400.826;82;10.00;37426.54
1725362400.876;102;10.00;35765.87
1725362400.925;102;10.00;35765.87
1725362400.975;102;10.00;35765.87
1725362401.026;102;10.00;35765.87
1725362401.076;111;10.00;35028.80
1725362401.126;74;10.00;38064.27
1725362401.176;59;10.00;39283.20
1725362401.226;59;10.00;39283.20
1725362401.277;59;10.00;39283.20
1725362401.327;59;10.00;39283.20
1725362401.376;46;10.00;40392.40
1725362401.426;82;10.00;37404.00
1725362401.476;104;10.00;35646.67
1725362401.526;104;10.00;35646.67
1725362401.577;104;10.00;35646.67
1725362401.626;104;10.00;35646.67
1725362401.677;61;10.00;39186.67
1725362401.726;98;10.00;36072.80
1725362401.777;48;10.00;40226.27
1725362401.826;81;10.00;37529.73
1725362401.877;81;10.00;37529.73
1725362401.926;81;10.00;37529.73
1725362401.976;62;10.00;39103.20
1725362402.076;117;10.00;34534.40
1725362402.127;117;10.00;34534.40
1725362402.176;117;10.00;34534.40
1725362402.227;121;10.00;34230.93
1725362402.326;76;10.00;37898.13
1725362402.376;76;10.00;37898.13
1725362402.426;76;10.00;37898.13
1725362402.477;95;10.00;36369.07
1725362402.527;120;10.00;34252.00
1725362402.577;44;10.00;40571.73
1725362402.626;44;10.00;40571.73
1725362402.676;44;10.00;40571.73
1725362402.727;44;10.00;40571.73
1725362402.777;121;10.00;34182.93
1725362402.827;74;10.00;38094.13
1725362402.878;90;10.00;36745.20
1725362402.928;90;10.00;36745.20
1725362402.977;90;10.00;36745.20
1725362403.029;91;10.00;36645.33
1725362403.079;68;10.00;38546.67
1725362403.129;71;10.00;38367.46
1725362403.179;71;10.00;38367.46
1725362403.229;71;10.00;38367.46
1725362403.279;71;10.00;38367.46
1725362403.329;54;10.00;39712.00
1725362403.379;71;10.00;38304.00
1725362403.429;111;10.00;35048.54
1725362403.480;111;10.00;35048.54
1725362403.529;111;10.00;35048.54
1725362403.581;73;10.00;38173.33
1725362403.631;108;10.00;35317.46
1725362403.681;114;10.00;34810.67
1725362403.731;114;10.00;34810.67
1725362403.781;114;10.00;34810.67
1725362403.831;98;10.00;36122.13
1725362403.882;63;10.00;38977.46
1725362403.932;71;10.00;38340.40
1725362403.982;67;10.00;38696.07
1725362404.032;67;10.00;38696.07
1725362404.081;67;10.00;38696.07
1725362404.132;61;10.00;39111.80
1725362404.233;61;10.00;39111.33
1725362404.282;74;10.00;38052.40
1725362404.333;74;10.00;38052.40
1725362404.383;74;10.00;38052.40
1725362404.432;112;10.00;34982.40
1725362404.484;77;10.00;37862.93
1725362404.534;71;10.00;38333.33
1725362404.585;69;10.00;38495.20
1725362404.635;69;10.00;38495.20
1725362404.685;69;10.00;38495.20
1725362404.735;56;10.00;39557.46
1725362404.785;119;10.00;34408.54
1725362404.835;81;10.00;37534.13
1725362404.885;110;10.00;35144.80
1725362404.935;110;10.00;35144.80
1725362404.985;110;10.00;35144.80
1725362405.035;120;10.00;34264.67
1725362405.085;75;10.00;38009.33
1725362405.185;65;10.00;38821.60
1725362405.235;65;10.00;38821.60
1725362405.285;65;10.00;38821.60
1725362405.335;65;10.00;38821.60
1725362405.385;66;10.00;38706.67
1725362405.486;80;10.00;37579.20
1725362405.536;80;10.00;37579.20
1725362405.587;80;10.00;37579.20
1725362405.637;104;10.00;35631.20
1725362405.787;87;10.00;36985.07
1725362405.837;87;10.00;36985.07
1725362405.887;87;10.00;36985.07
1725362405.937;97;10.00;36198.13
1725362405.987;120;10.00;34332.46
1725362406.037;119;10.00;34353.00
1725362406.237;60;10.00;39232.00
1725362406.287;102;10.00;35737.33
1725362406.538;78;10.00;37779.20
1725362406.588;118;10.00;34441.00
1725362608.252;350;20.29;34348.27
1725362608.301;350;20.29;34348.27
1725362608.353;350;20.29;34348.27
1725362608.403;350;20.29;34348.27
1725362608.453;350;20.42;34497.07
1725362608.502;350;21.65;35904.40
1725362608.553;350;21.65;35904.40
1725362608.603;350;21.65;35904.40
1725362608.654;350;21.65;35904.40
1725362608.704;350;22.08;36388.27
1725362608.754;350;22.75;37153.60
1725362608.955;350;25.91;40752.54
1725362609.005;350;24.06;38648.93
1725362609.055;350;21.59;35828.13
1725362609.105;350;21.16;35344.80
1725362609.155;350;21.16;35344.80
1725362609.205;350;21.16;35344.80
1725362609.255;350;25.22;39963.87
1725362609.305;350;22.37;36714.67
1725362609.355;350;25.72;40532.54
1725362609.406;350;25.72;40532.54
1725362609.455;350;25.72;40532.54
1725362609.505;350;25.72;40532.54
1725362609.556;350;26.51;41435.73
1725362609.605;350;22.44;36800.54
1725362609.656;350;21.76;36026.13
1725362609.706;350;21.76;36026.13
1725362609.756;350;21.76;36026.13
1725362609.806;350;22.09;36402.13
1725362609.857;350;22.20;36524.00
1725362609.907;350;25.82;40650.40
1725362609.958;350;21.53;35765.87
1725362610.007;350;21.53;35765.87
1725362610.057;350;21.53;35765.87
1725362610.108;350;21.53;35765.87
1725362610.208;350;20.48;34565.13
1725362610.259;350;25.81;40635.20
1725362610.309;350;20.88;35024.13
1725362610.358;350;20.88;35024.13
1725362610.408;350;20.88;35024.13
1725362610.458;350;22.32;36667.73
1725362610.508;350;23.02;37457.73
1725362610.559;350;24.68;39347.60
1725362610.609;350;23.15;37604.67
1725362610.659;350;23.15;37604.67
1725362610.708;350;23.15;37604.67
1725362610.758;350;21.33;35537.87
1725362610.809;350;26.44;41349.60
1725362610.860;350;20.90;35042.80
1725362610.910;350;22.69;37088.40
1725362610.959;350;22.69;37088.40
1725362611.009;350;22.69;37088.40
1725362611.059;350;23.19;37656.40
1725362611.111;350;21.22;35413.07
1725362611.161;350;21.22;35413.07
1725362611.211;350;24.03;38611.07
1725362611.261;350;24.03;38611.07
1725362611.311;350;24.03;38611.07
1725362611.361;350;22.50;36862.93
1725362611.411;350;22.55;36923.73
1725362611.461;350;22.22;36553.33
1725362611.511;350;22.22;36553.33
1725362611.562;350;22.22;36553.33
1725362611.611;350;22.22;36553.33
1725362611.661;350;21.87;36148.33
1725362611.711;350;22.99;37428.40
1725362611.761;350;20.78;34909.00
1725362612.012;350;20.91;35061.87
1725362612.062;350;20.35;34414.46
1725362612.111;350;20.92;35071.73
1725362612.162;350;20.92;35071.73
1725362612.212;350;20.92;35071.73
1725362612.262;350;20.20;34246.93
1725362612.312;350;21.37;35577.07
1725362612.362;350;26.52;41446.54
1725362612.413;350;21.57;35806.13
1725362612.462;350;21.57;35806.13
1725362612.512;350;21.57;35806.13
1725362612.612;350;21.61;35850.93
1725362612.662;350;21.61;35850.93
1725362612.712;350;21.61;35850.93
1725362612.763;350;21.54;35772.00
1725362612.813;350;25.17;39912.00
1725362612.862;350;24.42;39052.80
1725362612.914;350;24.42;39052.80
1725362612.964;350;24.42;39052.80
1725362613.014;350;24.75;39426.13
1725362613.064;350;24.93;39638.67
1725362613.165;350;20.65;34760.13
1725362613.214;350;20.65;34760.13
1725362613.265;350;20.65;34760.13
1725362613.315;350;22.17;36487.73
1725362613.365;350;22.25;36588.80
1725362613.515;350;20.97;35122.67
1725362613.566;350;20.97;35122.67
1725362613.616;350;20.97;35122.67
1725362613.666;350;20.97;35122.67
1725362613.715;350;21.41;35627.87
1725362613.816;350;23.39;37884.00
1725362613.867;350;23.39;37884.00
1725362613.916;350;23.39;37884.00
1725362613.966;350;23.42;37915.73
1725362614.016;350;22.54;36908.54
1725362614.067;350;20.32;34385.60
1725362614.118;350;26.31;41208.00
1725362614.168;350;26.31;41208.00
1725362614.218;350;26.31;41208.00
1725362614.267;350;22.61;36995.73
1725362614.318;350;24.63;39288.54
1725362614.367;350;21.73;35989.73
1725362614.418;350;21.73;35989.73
1725362614.468;350;21.73;35989.73
1725362614.517;350;21.73;35989.73
1725362614.618;350;22.28;36616.80
1725362614.669;350;22.62;36999.87
1725362614.718;350;20.50;34587.27
1725362614.769;350;20.50;34587.27
1725362614.819;350;20.50;34587.27
1725362614.869;350;20.50;34587.27
1725362614.919;350;21.90;36180.80
1725362614.970;350;20.34;34408.80
1725362615.020;350;20.82;34950.13
1725362615.070;350;20.82;34950.13
1725362615.119;350;20.82;34950.13
1725362615.170;350;20.82;34950.13
1725362615.220;350;21.48;35700.54
1725362615.321;350;22.48;36846.54
1725362615.372;350;20.79;34926.00
1725362615.421;350;21.62;35862.27
1725362615.471;350;21.62;35862.27
1725362615.522;350;21.62;35862.27
1725362615.572;350;22.49;36857.20
1725362615.621;350;22.54;36913.33
1725362615.672;350;23.32;37796.67
1725362615.722;350;21.89;36169.60
1725362615.772;350;20.32;34382.67
1725362615.822;350;20.32;34382.67
1725362615.871;350;20.32;34382.67
1725362615.921;350;20.32;34382.67
1725362615.973;350;23.79;38332.40
1725362616.073;350;24.29;38906.54
1725362616.123;350;22.67;37063.73
1725362616.173;350;22.67;37063.73
1725362616.222;350;22.67;37063.73
1725362616.273;350;22.67;37063.73
1725362616.323;350;22.67;37063.73
1725362616.373;350;22.12;36429.93
1725362616.422;350;21.06;35233.07
1725362616.473;350;22.65;37033.20
1725362632.846;350;20.18;34222.46
1725362633.146;350;20.42;34503.13
1725362633.196;350;20.42;34503.13
1725362633.246;350;20.42;34503.13
1725362633.296;350;20.42;34503.13
1725362633.447;350;25.23;39976.00
1725362633.496;350;25.23;39976.00
1725362633.546;350;25.23;39976.00
1725362633.596;350;24.77;39455.87
1725362633.646;350;22.46;36820.00
1725362633.696;350;22.07;36376.67
1725362633.746;350;20.83;34968.27
1725362633.798;350;20.83;34968.27
1725362633.848;350;20.83;34968.27
1725362633.948;350;22.32;36663.46
1725362633.998;350;20.79;34921.13
1725362634.047;350;20.31;34377.00
1725362634.097;350;20.31;34377.00
1725362634.148;350;20.31;34377.00
1725362634.298;350;24.67;39336.00
1725362634.348;350;24.67;39336.00
1725362634.399;350;24.67;39336.00
1725362634.449;350;24.67;39336.00
1725362634.499;350;22.89;37311.07
1725362634.550;350;21.54;35774.33
1725362634.599;350;24.01;38588.00
1725362634.649;350;24.01;38588.00
1725362634.699;350;24.01;38588.00
1725362634.749;350;24.01;38588.00
1725362634.799;350;21.95;36244.20
1725362634.850;350;25.68;40491.73
1725362634.899;350;25.45;40229.33
1725362634.949;350;23.82;38368.13
1725362635.000;350;24.23;38841.20
1725362635.050;350;24.23;38841.20
1725362635.099;350;24.23;38841.20
1725362635.150;350;24.23;38841.20
1725362635.200;350;22.04;36344.54
1725362635.250;350;22.55;36923.46
1725362635.300;350;22.10;36412.40
1725362635.351;350;23.19;37658.27
1725362635.401;350;23.19;37658.27
1725362635.450;350;23.19;37658.27
1725362635.501;350;23.19;37658.27
1725362635.551;350;26.46;41376.80
1725362635.600;350;25.23;39979.46
1725362635.702;350;26.31;41202.93
1725362635.752;350;25.18;39924.80
1725362635.801;350;25.18;39924.80
1725362635.852;350;25.18;39924.80
1725362635.954;350;26.31;41206.00
1725362636.004;350;21.20;35382.40
1725362636.055;350;20.12;34159.73
1725362636.105;350;20.12;34159.73
1725362636.155;350;20.12;34159.73
1725362636.206;350;20.12;34159.73
1725362636.305;350;21.56;35793.60
1725362636.355;350;26.54;41468.13
1725362636.405;350;24.74;39414.13
1725362636.455;350;24.74;39414.13
1725362636.506;350;24.74;39414.13
1725362636.555;350;24.74;39414.13
1725362636.605;350;21.65;35902.80
1725362636.655;350;22.46;36827.46
1725362636.705;350;23.09;37537.33
1725362636.756;350;20.64;34745.07
1725362636.805;350;20.64;34745.07
1725362636.856;350;20.64;34745.07
1725362636.905;350;20.64;34745.07
1725362636.956;350;20.77;34894.00
1725362637.006;350;20.94;35092.67
1725362637.055;350;20.21;34255.33
1725362637.106;350;21.08;35255.87
1725362637.155;350;21.58;35825.60
1725362637.206;350;21.58;35825.60
1725362637.256;350;21.58;35825.60
1725362637.306;350;20.49;34583.07
1725362637.356;350;25.98;40828.80
1725362637.406;350;22.05;36355.73
1725362637.456;350;26.49;41413.33
1725362637.506;350;26.49;41413.33
1725362637.556;350;26.49;41413.33
1725362637.607;350;26.49;41413.33
1725362637.658;350;22.68;37078.40
1725362637.708;350;20.47;34551.87
1725362637.758;350;23.73;38263.67
1725362637.808;350;22.15;36467.20
1725362637.859;350;23.58;38092.54
1725362637.908;350;23.58;38092.54
1725362637.959;350;23.58;38092.54
1725362638.009;350;22.20;36520.80
1725362638.163;350;26.35;41254.40
1725362638.215;350;26.35;41254.40
1725362638.265;350;26.35;41254.40
1725362638.315;350;25.09;39815.46
1725362638.365;350;20.64;34751.13
1725362638.415;350;22.40;36752.27
1725362638.465;350;22.47;36832.13
1725362638.515;350;22.47;36832.13
1725362638.565;350;22.47;36832.13
1725362638.616;350;25.95;40799.46
1725362638.666;350;23.86;38412.00
1725362638.716;350;22.37;36720.67
1725362638.766;350;22.37;36720.67
1725362638.816;350;22.37;36720.67
1725362638.866;350;22.37;36720.67
1725362638.965;350;22.93;37357.33
1725362639.015;350;23.05;37493.60
1725362639.066;350;23.05;37493.60
1725362639.116;350;23.05;37493.60
1725362639.165;350;23.05;37493.60
1725362639.216;350;20.39;34461.87
1725362639.266;350;22.00;36298.93
1725362639.315;350;22.69;37084.80
1725362639.367;350;22.54;36915.20
1725362639.417;350;22.54;36915.20
1725362639.466;350;22.54;36915.20
1725362639.517;350;22.54;36915.20
1725362639.566;350;23.94;38504.54
1725362639.666;350;21.27;35466.13
1725362639.867;350;20.39;34461.87
1725362639.918;350;22.98;37410.67
1725362639.967;350;22.90;37317.87
1725362640.017;350;21.88;36157.13
1725362640.067;350;21.88;36157.13
1725362640.118;350;21.88;36157.13
1725362640.167;350;21.88;36157.13
1725362640.219;350;22.83;37246.80
1725362640.268;350;23.12;37568.93
1725362640.318;350;22.50;36871.07
1725362640.368;350;22.50;36871.07
1725362640.419;350;22.50;36871.07
1725362640.469;350;22.50;36871.07
1725362640.568;350;22.01;36306.40
1725362640.618;350;25.19;39932.80
1725362640.668;350;23.03;37471.20
1725362640.719;350;23.03;37471.20
1725362640.769;350;23.03;37471.20
1725362640.819;350;22.07;36382.80
1725362640.868;350;22.67;37063.87
1725362640.919;350;25.43;40206.00
1725362640.969;350;24.23;38839.07
1725362641.020;350;24.23;38839.07
1725362641.071;350;24.23;38839.07
1725362641.121;350;21.46;35680.27
1725362641.171;350;21.44;35664.80
1725362659.030;350;20.77;34900.87
1725362659.329;350;22.55;36929.07
1725362659.580;350;20.74;34867.87
1725362659.630;350;21.60;35838.93
1725362659.680;350;20.18;34229.27
1725362659.930;350;25.22;39965.46
1725362660.030;350;20.14;34181.20
1725362660.080;350;20.14;34181.20
1725362660.131;350;20.14;34181.20
1725362660.181;350;20.14;34181.20
1725362660.230;350;21.48;35705.87
1725362660.280;350;26.70;41648.80
1725362660.331;350;26.05;40911.87
1725362660.382;350;26.05;40911.87
1725362660.431;350;26.05;40911.87
1725362660.481;350;26.05;40911.87
1725362660.532;350;21.88;36164.27
1725362660.582;350;24.29;38911.60
1725362660.631;350;21.83;36101.33
1725362660.682;350;21.21;35394.00
1725362660.732;350;21.21;35394.00
1725362660.782;350;21.21;35394.00
1725362660.834;350;21.21;35394.00
1725362660.882;350;22.31;36652.93
1725362660.982;350;23.11;37564.73
1725362661.032;350;23.11;37564.73
1725362661.082;350;23.11;37564.73
1725362661.132;350;23.11;37564.73
1725362661.182;350;20.39;34463.20
1725362661.282;350;21.55;35789.46
1725362661.332;350;21.55;35789.46
1725362661.382;350;21.55;35789.46
1725362661.431;350;21.55;35789.46
1725362661.482;350;20.63;34738.40
1725362661.532;350;25.63;40432.54
1725362661.582;350;24.94;39644.27
1725362661.633;350;23.75;38292.80
1725362661.683;350;21.66;35916.46
1725362661.732;350;21.66;35916.46
1725362661.783;350;21.66;35916.46
1725362661.833;350;24.15;38742.93
1725362661.884;350;23.74;38284.60
1725362661.933;350;24.31;38923.87
1725362661.984;350;22.26;36593.87
1725362662.033;350;21.77;36039.87
1725362662.084;350;21.77;36039.87
1725362662.134;350;21.77;36039.87
1725362662.185;350;21.77;36039.87
1725362662.234;350;20.93;35077.33
1725362662.285;350;21.49;35718.40
1725362662.335;350;23.67;38203.46
1725362662.385;350;21.90;36189.73
1725362662.435;350;21.90;36189.73
1725362662.485;350;21.90;36189.73
1725362662.535;350;21.90;36189.73
1725362662.585;350;25.38;40143.20
1725362662.635;350;22.22;36548.00
1725362662.686;350;23.58;38101.87
1725362662.736;350;21.99;36292.54
1725362662.787;350;21.99;36292.54
1725362662.837;350;21.99;36292.54
1725362662.886;350;21.99;36292.54
1725362662.987;350;20.38;34452.27
1725362663.042;350;21.41;35626.13
1725362663.088;350;22.54;36911.20
1725362663.138;350;22.70;37095.07
1725362663.188;350;22.70;37095.07
1725362663.238;350;22.70;37095.07
1725362663.288;350;22.70;37095.07
1725362663.338;350;21.23;35418.13
1725362663.388;350;20.45;34533.60
1725362663.438;350;25.67;40473.87
1725362663.488;350;25.34;40098.13
1725362663.538;350;25.34;40098.13
1725362663.588;350;25.34;40098.13
1725362663.638;350;25.34;40098.13
1725362663.689;350;25.34;40098.13
1725362663.788;350;21.12;35301.87
1725362663.839;350;21.99;36288.60
1725362663.889;350;25.89;40733.87
1725362663.940;350;25.89;40733.87
1725362663.991;350;25.89;40733.87
1725362664.041;350;25.89;40733.87
1725362664.091;350;22.16;36485.73
1725362664.141;350;20.41;34486.40
1725362664.241;350;20.74;34866.27
1725362664.292;350;21.98;36276.13
1725362664.341;350;21.98;36276.13
1725362664.392;350;21.98;36276.13
1725362664.442;350;21.98;36276.13
1725362664.491;350;25.65;40456.27
1725362664.541;350;22.58;36960.27
1725362664.592;350;20.20;34246.40
1725362664.641;350;24.10;38687.33
1725362664.692;350;23.30;37781.07
1725362664.742;350;23.30;37781.07
1725362664.792;350;23.30;37781.07
1725362664.841;350;23.30;37781.07
1725362664.891;350;25.92;40763.60
1725362664.941;350;21.50;35730.93
1725362664.992;350;22.36;36703.60
1725362665.043;350;22.79;37200.27
1725362665.092;350;22.79;37200.27
1725362665.143;350;22.79;37200.27
1725362665.193;350;22.79;37200.27
1725362665.243;350;22.28;36616.13
1725362665.293;350;23.34;37822.00
1725362665.342;350;20.98;35141.33
1725362665.392;350;20.43;34509.60
1725362665.443;350;26.55;41478.13
1725362665.494;350;26.55;41478.13
1725362665.543;350;26.55;41478.13
1725362665.593;350;26.55;41478.13
1725362665.643;350;21.53;35759.46
1725362665.693;350;21.94;36228.80
1725362665.743;350;26.58;41517.60
1725362665.793;350;21.21;35402.13
1725362665.844;350;21.21;35402.13
1725362665.893;350;21.21;35402.13
1725362665.944;350;21.59;35832.80
1725362665.994;350;22.69;37087.87
1725362666.143;350;21.31;35508.00
1725362666.193;350;21.31;35508.00
1725362666.243;350;21.31;35508.00
1725362666.293;350;21.31;35508.00
1725362666.343;350;26.01;40868.54
1725362666.393;350;20.41;34486.87
1725362666.443;350;21.40;35611.60
1725362666.494;350;21.64;35893.60
1725362666.543;350;21.64;35893.60
1725362666.593;350;21.64;35893.60
1725362666.644;350;21.97;36260.00
1725362666.694;350;25.67;40472.54
1725362666.745;350;26.15;41026.40
1725362666.794;350;21.41;35624.00
1725362666.845;350;21.41;35624.00
1725362666.895;350;21.41;35624.00
1725362666.945;350;21.41;35624.00
1725362666.995;350;21.41;35624.00
1725362667.045;350;22.78;37183.46
1725362667.095;350;25.27;40025.60
1725362667.195;350;22.68;37076.27
1725362667.245;350;22.68;37076.27
1725362667.295;350;22.68;37076.27
1725362667.345;350;21.64;35888.40
1725362667.396;350;22.85;37271.20
1725362667.496;350;22.53;36897.07
1725362667.545;350;22.53;36897.07
1725362667.596;350;22.53;36897.07
1725362667.646;350;22.53;36897.07
1725362667.696;350;22.53;36897.07
1725362667.746;350;21.79;36056.93
1725362667.800;350;21.21;35399.33
1725362667.847;350;22.52;36893.87
1725362667.897;350;21.08;35245.07
1725362667.946;350;21.64;35888.54
1725362667.997;350;21.64;35888.54
1725362668.046;350;21.64;35888.54
1725362668.097;350;22.63;37019.73
1725362668.146;350;20.47;34554.54
1725362668.198;350;23.70;38234.13
1725362668.247;350;25.50;40286.13
1725362668.297;350;23.93;38500.40
1725362816.633;119;40.00;34402.40
1725362816.933;48;40.00;40254.27
1725362817.184;120;40.00;34253.87
1725362819.037;120;40.00;34254.40
1725362819.136;108;40.00;35306.67
1725362819.186;108;40.00;35306.67
1725362819.236;108;40.00;35306.67
1725362819.287;108;40.00;35306.67
1725362819.336;114;40.00;34801.33
1725362819.386;43;40.00;40646.13
1725362819.436;86;40.00;37116.27
1725362819.637;121;40.00;34194.80
1725362819.686;51;40.00;39934.80
1725362819.743;66;40.00;38720.40
1725362819.990;114;40.00;34782.27
1725362820.040;38;40.00;41045.87
1725362820.139;121;40.00;34214.13
1725362820.189;121;40.00;34214.13
1725362820.240;121;40.00;34214.13
1725362820.290;106;40.00;35407.87
1725362820.339;40;40.00;40853.20
1725362820.439;32;40.00;41499.46
1725362820.490;32;40.00;41499.46
1725362820.539;32;40.00;41499.46
1725362820.589;32;40.00;41499.46
1725362820.740;119;40.00;34365.33
1725362820.791;119;40.00;34365.33
1725362820.841;119;40.00;34365.33
1725362820.891;119;40.00;34365.33
1725362820.941;108;40.00;35271.07
1725362820.990;119;40.00;34409.33
1725362821.040;90;40.00;36722.40
1725362821.091;92;40.00;36607.20
1725362821.140;92;40.00;36607.20
1725362821.191;92;40.00;36607.20
1725362821.241;92;40.00;36607.20
1725362821.290;85;40.00;37193.33
1725362821.440;84;40.00;37240.00
1725362821.490;84;40.00;37240.00
1725362821.540;84;40.00;37240.00
1725362821.590;119;40.00;34402.67
1725362821.692;112;40.00;34920.00
1725362821.741;35;40.00;41277.60
1725362821.791;35;40.00;41277.60
1725362821.841;35;40.00;41277.60
1725362821.891;116;40.00;34614.40
1725362821.941;68;40.00;38552.40
1725362821.992;67;40.00;38655.46
1725362822.042;67;40.00;38655.46
1725362822.092;67;40.00;38655.46
1725362822.142;67;40.00;38655.46
1725362822.193;120;40.00;34317.60
1725362822.243;27;40.00;41953.60
1725362822.294;40;40.00;40854.93
1725362822.344;67;40.00;38657.07
1725362822.395;67;40.00;38657.07
1725362822.445;67;40.00;38657.07
1725362822.545;116;40.00;34608.00
1725362822.596;117;40.00;34562.20
1725362822.645;68;40.00;38602.13
1725362822.695;68;40.00;38602.13
1725362822.745;68;40.00;38602.13
1725362822.796;58;40.00;39395.46
1725362823.096;83;40.00;37328.54
1725362823.196;118;40.00;34494.40
1725362823.245;118;40.00;34494.40
1725362823.296;118;40.00;34494.40
1725362823.346;118;40.00;34494.40
1725362823.396;82;40.00;37459.46
1725362823.445;88;40.00;36904.67
1725362823.495;88;40.00;36904.67
1725362823.545;88;40.00;36904.67
1725362823.596;88;40.00;36904.67
1725362823.645;58;40.00;39423.73
1725362823.697;60;40.00;39264.27
1725362823.745;114;40.00;34813.87
1725362823.797;84;40.00;37232.13
1725362823.846;109;40.00;35166.27
1725362823.896;109;40.00;35166.27
1725362823.946;109;40.00;35166.27
1725362823.996;112;40.00;34916.80
1725362824.046;57;40.00;39439.60
1725362824.096;73;40.00;38184.00
1725362824.146;50;40.00;40068.80
1725362824.196;50;40.00;40068.80
1725362824.246;50;40.00;40068.80
1725362824.296;99;40.00;35991.20
1725362824.346;100;40.00;35921.33
1725362842.437;122;40.00;34158.13
1725362842.488;121;40.00;34217.33
1725362842.838;113;40.00;34881.07
1725362842.887;113;40.00;34881.07
1725362842.938;113;40.00;34881.07
1725362842.988;113;40.00;34881.07
1725362843.088;33;40.00;41455.73
1725362843.138;98;40.00;36144.20
1725362843.188;98;40.00;36144.20
1725362843.238;98;40.00;36144.20
1725362843.288;98;40.00;36144.20
1725362843.391;103;40.00;35711.33
1725362843.444;73;40.00;38202.80
1725362843.490;73;40.00;38202.80
1725362843.540;73;40.00;38202.80
1725362843.591;73;40.00;38202.80
1725362843.640;28;40.00;41865.07
1725362843.741;114;40.00;34764.00
1725362843.791;53;40.00;39775.46
1725362843.841;53;40.00;39775.46
1725362843.892;53;40.00;39775.46
1725362843.942;53;40.00;39775.46
1725362843.992;53;40.00;39775.46
1725362844.093;41;40.00;40774.40
1725362844.142;77;40.00;37810.40
1725362844.193;77;40.00;37810.40
1725362844.243;77;40.00;37810.40
1725362844.293;117;40.00;34502.13
1725362844.343;105;40.00;35500.13
1725362844.393;93;40.00;36539.46
1725362844.444;97;40.00;36220.73
1725362844.493;97;40.00;36220.73
1725362844.543;97;40.00;36220.73
1725362844.594;97;40.00;36220.73
1725362844.644;90;40.00;36743.73
1725362844.694;69;40.00;38465.60
1725362844.744;68;40.00;38581.67
1725362844.793;83;40.00;37334.40
1725362844.845;106;40.00;35469.60
1725362844.895;106;40.00;35469.60
1725362844.945;106;40.00;35469.60
1725362844.996;106;40.00;35469.60
1725362845.046;87;40.00;37031.46
1725362845.146;29;40.00;41753.00
1725362845.196;54;40.00;39724.40
1725362845.246;54;40.00;39724.40
1725362845.296;54;40.00;39724.40
1725362845.346;55;40.00;39656.27
1725362845.396;111;40.00;34994.27
1725362845.447;117;40.00;34522.40
1725362845.497;53;40.00;39841.60
1725362845.546;53;40.00;39841.60
1725362845.596;53;40.00;39841.60
1725362845.647;53;40.00;39841.60
1725362845.696;27;40.00;41992.00
1725362845.746;33;40.00;41427.20
1725362845.846;122;40.00;34154.40
1725362845.898;122;40.00;34154.40
1725362845.947;122;40.00;34154.40
1725362845.998;122;40.00;34154.40
1725362846.047;110;40.00;35121.07
1725362846.098;108;40.00;35240.13
1725362846.248;50;40.00;40086.13
1725362846.298;50;40.00;40086.13
1725362846.347;50;40.00;40086.13
1725362846.397;38;40.00;41054.93
1725362846.448;79;40.00;37682.54
1725362846.548;83;40.00;37330.40
1725362846.599;104;40.00;35625.87
1725362846.649;104;40.00;35625.87
1725362846.699;104;40.00;35625.87
1725362846.748;105;40.00;35509.33
1725362846.799;37;40.00;41109.07
1725362846.849;46;40.00;40407.46
1725362846.898;28;40.00;41837.33
1725362846.949;66;40.00;38747.46
1725362846.999;66;40.00;38747.46
1725362847.050;66;40.00;38747.46
1725362847.100;66;40.00;38747.46
1725362847.150;91;40.00;36648.80
1725362847.250;95;40.00;36349.33
1725362847.300;111;40.00;35022.80
1725362847.350;111;40.00;35022.80
1725362847.400;111;40.00;35022.80
1725362847.550;110;40.00;35088.73
1725362847.651;46;40.00;40348.54
1725362847.701;46;40.00;40348.54
1725362847.752;46;40.00;40348.54
1725362847.801;46;40.00;40348.54
1725362847.902;72;40.00;38213.33
1725362847.951;56;40.00;39559.20
1725362848.002;36;40.00;41205.60
1725362848.051;72;40.00;38210.13
1725362848.102;72;40.00;38210.13
1725362848.152;72;40.00;38210.13
1725362848.202;112;40.00;34943.60
1725362848.252;34;40.00;41373.73
1725362848.302;98;40.00;36137.07
1725362848.351;84;40.00;37225.60
1725362848.403;83;40.00;37301.60
1725362848.453;83;40.00;37301.60
1725362848.503;83;40.00;37301.60
1725362848.553;36;40.00;41235.46
1725362848.603;55;40.00;39621.73
1725362848.652;27;40.00;41941.60
1725362848.703;34;40.00;41403.46
1725362848.753;34;40.00;41403.46
1725362848.803;34;40.00;41403.46
1725362848.853;34;40.00;41403.46
1725362848.903;34;40.00;41403.46
1725362848.953;32;40.00;41530.13
1725362849.003;42;40.00;40738.13
1725362849.053;87;40.00;37041.87
1725362849.153;120;40.00;34313.60
1725362849.203;120;40.00;34313.60
1725362849.253;120;40.00;34313.60
1725362849.303;120;40.00;34313.60
1725362849.405;29;40.00;41798.40
1725362849.756;96;40.00;36227.60
1725362868.233;119;40.00;34396.13
1725362868.284;119;40.00;34396.13
1725362868.335;119;40.00;34396.13
1725362868.385;119;40.00;34396.13
1725362868.535;111;40.00;35033.07
1725362868.586;111;40.00;35033.07
1725362868.636;111;40.00;35033.07
1725362868.686;111;40.00;35033.07
1725362868.736;105;40.00;35557.60
1725362868.836;62;40.00;39097.07
1725362868.887;57;40.00;39516.27
1725362868.936;57;40.00;39516.27
1725362868.986;57;40.00;39516.27
1725362869.037;57;40.00;39516.27
1725362869.136;121;40.00;34241.07
1725362869.186;105;40.00;35539.33
1725362869.236;105;40.00;35539.33
1725362869.287;105;40.00;35539.33
1725362869.336;106;40.00;35470.93
1725362869.487;79;40.00;37689.07
1725362869.536;79;40.00;37689.07
1725362869.587;79;40.00;37689.07
1725362869.738;93;40.00;36481.80
1725362869.788;89;40.00;36873.00
1725362869.838;89;40.00;36873.00
1725362869.887;89;40.00;36873.00
1725362869.938;51;40.00;39997.07
1725362869.987;108;40.00;35284.67
1725362870.038;48;40.00;40209.54
1725362870.289;83;40.00;37365.60
1725362870.640;111;40.00;35058.54
1725362870.841;110;40.00;35125.87
1725362871.092;115;40.00;34719.07
1725362871.142;109;40.00;35229.00
1725362871.342;120;40.00;34264.80
1725362871.392;90;40.00;36721.60
1725362871.492;110;40.00;35078.40
1725362871.543;110;40.00;35078.40
1725362871.594;110;40.00;35078.40
1725362871.643;61;40.00;39119.46
1725362871.695;45;40.00;40476.00
1725362871.745;31;40.00;41582.67
1725362871.794;31;40.00;41582.67
1725362871.844;31;40.00;41582.67
1725362871.895;31;40.00;41582.67
1725362871.944;31;40.00;41582.67
1725362871.995;94;40.00;36437.60
1725362872.045;84;40.00;37268.00
1725362872.095;118;40.00;34488.00
1725362872.145;118;40.00;34488.00
1725362872.196;118;40.00;34488.00
1725362872.246;117;40.00;34541.87
1725362872.295;37;40.00;41088.54
1725362872.347;45;40.00;40440.54
1725362872.396;99;40.00;35984.40
1725362872.446;99;40.00;35984.40
1725362872.496;99;40.00;35984.40
1725362872.546;115;40.00;34685.07
1725362872.597;92;40.00;36608.27
1725362872.697;40;40.00;40875.73
1725362872.746;40;40.00;40875.73
1725362872.796;40;40.00;40875.73
1725362872.847;40;40.00;40875.73
1725362872.996;50;40.00;40029.87
1725362873.046;50;40.00;40029.87
1725362873.097;50;40.00;40029.87
1725362873.147;50;40.00;40029.87
1725362873.198;121;40.00;34194.93
1725362873.298;94;40.00;36455.20
1725362873.348;94;40.00;36455.20
1725362873.399;94;40.00;36455.20
1725362873.449;94;40.00;36455.20
1725362873.499;77;40.00;37865.33
1725362873.550;38;40.00;41060.13
1725362873.600;116;40.00;34653.87
1725362873.849;45;40.00;40498.27
1725362873.949;56;40.00;39537.07
1725362874.000;119;40.00;34346.07
1725362874.051;119;40.00;34346.07
1725362874.101;119;40.00;34346.07
1725362874.151;119;40.00;34346.07
1725362874.251;87;40.00;37009.87
1725362874.302;27;40.00;41992.00
1725362874.352;62;40.00;39050.67
1725362874.402;62;40.00;39050.67
1725362874.452;62;40.00;39050.67
1725362874.503;62;40.00;39050.67
1725362874.553;119;40.00;34353.20
1725362874.604;31;40.00;41590.67
1725362874.654;107;40.00;35351.20
1725362874.704;96;40.00;36253.60
1725362874.754;96;40.00;36253.60
1725362874.804;96;40.00;36253.60
1725362874.854;96;40.00;36253.60
1725362874.904;111;40.00;34992.54
1725362874.954;66;40.00;38722.93
1725362875.004;59;40.00;39301.07
1725362875.054;59;40.00;39301.07
1725362875.104;59;40.00;39301.07
1725362875.154;59;40.00;39301.07
1725362875.203;115;40.00;34734.67
1725362875.256;115;40.00;34734.67
1725362875.305;43;40.00;40612.27
1725362875.355;43;40.00;40647.87
1725362875.406;43;40.00;40647.87
1725362875.456;43;40.00;40647.87
1725362875.506;43;40.00;40647.87
1725362875.555;37;40.00;41148.27
1725362875.606;76;40.00;37942.67
1725362875.656;55;40.00;39640.67
1725363061.175;500;20.28;34335.13
1725363061.225;500;20.49;34582.67
1725363061.275;500;20.65;34764.54
1725363061.326;500;20.65;34764.54
1725363061.376;500;20.65;34764.54
1725363061.426;500;20.44;34522.40
1725363061.475;500;24.24;38847.46
1725363061.525;500;25.18;39917.33
1725363061.575;500;25.18;39917.33
1725363061.627;500;25.18;39917.33
1725363061.676;500;25.18;39917.33
1725363061.727;500;25.18;39917.33
1725363061.777;500;24.27;38884.54
1725363061.826;500;25.87;40702.54
1725363061.876;500;23.08;37525.07
1725363061.926;500;21.39;35600.00
1725363061.976;500;21.39;35600.00
1725363062.027;500;21.39;35600.00
1725363062.077;500;21.39;35600.00
1725363062.127;500;24.22;38824.40
1725363062.177;500;23.64;38168.27
1725363062.226;500;24.64;39303.87
1725363062.277;500;22.85;37268.27
1725363062.327;500;22.85;37268.27
1725363062.377;500;22.85;37268.27
1725363062.426;500;22.85;37268.27
1725363062.476;500;25.92;40764.00
1725363062.527;500;21.88;36159.07
1725363062.577;500;23.74;38280.80
1725363062.627;500;23.67;38198.13
1725363062.677;500;23.67;38198.13
1725363062.726;500;23.67;38198.13
1725363062.776;500;23.67;38198.13
1725363062.826;500;22.49;36857.60
1725363062.877;500;24.38;39010.40
1725363062.926;500;23.13;37580.00
1725363062.976;500;22.50;36870.00
1725363063.026;500;22.50;36870.00
1725363063.078;500;22.50;36870.00
1725363063.128;500;22.50;36870.00
1725363063.178;500;20.62;34730.13
1725363063.228;500;23.23;37698.13
1725363063.278;500;24.30;38913.54
1725363063.329;500;21.06;35223.73
1725363063.378;500;21.89;36169.33
1725363063.428;500;21.89;36169.33
1725363063.478;500;21.89;36169.33
1725363063.528;500;21.89;36169.33
1725363063.578;500;20.39;34470.13
1725363063.628;500;25.70;40511.93
1725363063.678;500;25.18;39921.80
1725363063.728;500;22.87;37284.67
1725363063.778;500;25.47;40245.07
1725363063.829;500;24.19;38787.73
1725363063.878;500;24.19;38787.73
1725363063.928;500;24.19;38787.73
1725363063.979;500;22.79;37195.20
1725363064.029;500;21.08;35246.13
1725363064.078;500;21.42;35643.20
1725363064.129;500;22.49;36854.93
1725363064.179;500;22.49;36854.93
1725363064.229;500;22.49;36854.93
1725363064.278;500;22.49;36854.93
1725363064.329;500;22.49;36854.93
1725363064.379;500;25.75;40565.33
1725363064.429;500;22.73;37126.40
1725363064.479;500;22.94;37365.07
1725363064.529;500;25.36;40130.00
1725363064.580;500;23.87;38426.93
1725363064.630;500;23.87;38426.93
1725363064.680;500;23.87;38426.93
1725363064.730;500;23.87;38426.93
1725363064.780;500;24.49;39129.87
1725363064.831;500;21.23;35416.80
1725363064.880;500;23.43;37926.00
1725363064.931;500;22.87;37292.40
1725363064.982;500;23.47;37973.87
1725363065.031;500;23.47;37973.87
1725363065.083;500;23.47;37973.87
1725363065.133;500;23.47;37973.87
1725363065.182;500;24.53;39178.80
1725363065.233;500;20.82;34954.80
1725363065.283;500;24.45;39093.60
1725363065.333;500;23.40;37894.54
1725363065.383;500;23.40;37894.54
1725363065.433;500;23.40;37894.54
1725363065.483;500;21.95;36244.00
1725363065.533;500;23.51;38017.73
1725363065.583;500;23.86;38418.93
1725363065.633;500;24.95;39654.00
1725363065.683;500;24.95;39654.00
1725363065.733;500;24.95;39654.00
1725363065.784;500;24.95;39654.00
1725363065.834;500;23.61;38137.60
1725363065.884;500;22.65;37040.80
1725363065.934;500;24.43;39070.93
1725363065.984;500;24.46;39100.27
1725363066.033;500;23.03;37465.87
1725363066.085;500;23.03;37465.87
1725363066.135;500;23.03;37465.87
1725363066.185;500;23.03;37465.87
1725363066.235;500;25.38;40143.73
1725363066.285;500;23.24;37712.80
1725363066.335;500;20.58;34686.40
1725363066.385;500;20.82;34955.73
1725363066.435;500;20.82;34955.73
1725363066.485;500;20.82;34955.73
1725363066.535;500;20.82;34955.73
1725363066.585;500;24.55;39196.80
1725363066.685;500;21.76;36020.27
1725363066.735;500;24.64;39305.87
1725363066.785;500;24.64;39305.87
1725363066.835;500;24.64;39305.87
1725363066.885;500;24.64;39305.87
1725363066.936;500;23.63;38149.20
1725363066.986;500;24.04;38623.20
1725363067.037;500;23.84;38395.46
1725363067.086;500;25.62;40420.80
1725363067.136;500;24.72;39396.54
1725363067.186;500;24.72;39396.54
1725363067.236;500;24.72;39396.54
1725363067.286;500;24.24;38844.13
1725363067.337;500;23.84;38393.33
1725363067.386;500;25.15;39880.93
1725363067.438;500;22.61;36993.60
1725363067.489;500;22.61;36993.60
1725363067.539;500;22.61;36993.60
1725363067.588;500;22.61;36993.60
1725363067.640;500;22.55;36925.46
1725363067.690;500;22.95;37381.07
1725363067.739;500;22.00;36295.07
1725363067.790;500;22.61;36993.60
1725363067.841;500;22.61;36993.60
1725363067.891;500;22.61;36993.60
1725363067.951;500;22.61;36993.60
1725363067.991;500;25.93;40771.73
1725363068.040;500;22.88;37302.13
1725363068.092;500;21.18;35361.07
1725363068.142;500;21.18;35361.07
1725363068.192;500;21.18;35361.07
1725363068.242;500;21.18;35361.07
1725363068.291;500;23.81;38359.40
1725363068.342;500;24.13;38729.33
1725363068.392;500;22.52;36891.46
1725363068.442;500;26.27;41159.33
1725363068.492;500;26.27;41159.33
1725363068.541;500;26.27;41159.33
1725363068.592;500;22.28;36622.00
1725363068.642;500;24.00;38573.07
1725363068.692;500;25.40;40173.87
1725363068.742;500;25.40;40173.87
1725363068.792;500;25.40;40173.87
1725363068.843;500;25.40;40173.87
1725363068.892;500;21.78;36043.46
1725363068.942;500;20.91;35059.73
1725363068.993;500;20.39;34467.46
1725363069.042;500;20.39;34467.46
1725363069.092;500;20.39;34467.46
1725363069.143;500;20.39;34467.46
1725363069.198;500;22.51;36878.80
1725363069.244;500;22.31;36646.40
1725363069.294;500;22.63;37017.60
1725363069.595;500;23.79;38338.40
1725363069.645;500;23.47;37970.40
1725363069.745;500;20.49;34582.13
1725363069.795;500;20.49;34582.13
1725363069.845;500;20.49;34582.13
1725363069.945;500;22.65;37033.87
1725363069.995;500;24.68;39351.46
1725363070.045;500;23.60;38115.20
1725363070.095;500;23.60;38115.20
1725363070.145;500;23.60;38115.20
1725363070.245;500;23.94;38502.93
1725363087.911;500;20.56;34657.73
1725363088.363;500;20.51;34601.07
1725363088.413;500;20.51;34601.07
1725363088.463;500;20.51;34601.07
1725363088.613;500;22.46;36821.07
1725363088.663;500;22.46;36821.07
1725363088.713;500;22.46;36821.07
1725363088.764;500;22.66;37052.80
1725363088.814;500;20.57;34674.67
1725363088.863;500;21.48;35706.67
1725363088.913;500;21.48;35706.67
1725363088.963;500;21.48;35706.67
1725363089.014;500;21.48;35706.67
1725363089.114;500;22.98;37418.13
1725363089.163;500;26.42;41334.40
1725363089.214;500;24.47;39107.46
1725363089.263;500;23.41;37898.67
1725363089.313;500;23.41;37898.67
1725363089.364;500;23.41;37898.67
1725363089.413;500;22.52;36894.93
1725363089.513;500;24.77;39454.13
1725363089.565;500;23.11;37563.87
1725363089.615;500;23.11;37563.87
1725363089.665;500;23.11;37563.87
1725363089.716;500;23.11;37563.87
1725363089.765;500;23.06;37509.07
1725363089.866;500;22.11;36420.80
1725363089.916;500;23.50;38004.00
1725363089.966;500;21.01;35172.27
1725363090.016;500;21.01;35172.27
1725363090.066;500;21.01;35172.27
1725363090.117;500;20.37;34443.46
1725363090.166;500;21.52;35747.46
1725363090.217;500;22.13;36445.46
1725363090.266;500;23.97;38539.46
1725363090.316;500;24.11;38705.60
1725363090.366;500;24.11;38705.60
1725363090.423;500;24.11;38705.60
1725363090.469;500;24.11;38705.60
1725363090.520;500;23.02;37462.67
1725363090.569;500;22.21;36539.20
1725363090.619;500;20.90;35045.07
1725363090.670;500;21.79;36064.00
1725363090.720;500;21.79;36064.00
1725363090.771;500;21.79;36064.00
1725363090.820;500;21.12;35301.33
1725363090.871;500;23.64;38167.20
1725363090.921;500;24.25;38860.54
1725363090.971;500;24.14;38733.07
1725363091.020;500;24.14;38733.07
1725363091.071;500;24.14;38733.07
1725363091.121;500;24.14;38733.07
1725363091.171;500;23.16;37614.13
1725363091.220;500;25.02;39732.13
1725363091.271;500;22.67;37056.67
1725363091.321;500;22.85;37266.13
1725363091.371;500;23.89;38447.46
1725363091.421;500;23.89;38447.46
1725363091.471;500;23.89;38447.46
1725363091.520;500;25.36;40124.20
1725363091.571;500;23.79;38334.13
1725363091.621;500;24.49;39138.40
1725363091.671;500;24.02;38598.67
1725363091.722;500;23.33;37816.27
1725363091.772;500;23.33;37816.27
1725363091.821;500;23.33;37816.27
1725363091.873;500;23.33;37816.27
1725363091.922;500;21.91;36197.87
1725363091.973;500;23.88;38439.93
1725363092.023;500;23.79;38333.07
1725363092.072;500;20.34;34404.00
1725363092.123;500;20.34;34404.00
1725363092.174;500;20.34;34404.00
1725363092.224;500;21.66;35908.80
1725363092.273;500;23.40;37889.13
1725363092.323;500;21.42;35633.33
1725363092.375;500;23.84;38397.46
1725363092.425;500;22.70;37095.46
1725363092.475;500;22.70;37095.46
1725363092.525;500;22.70;37095.46
1725363092.575;500;22.70;37095.46
1725363092.624;500;22.13;36444.80
1725363092.675;500;22.88;37302.67
1725363092.725;500;20.62;34722.13
1725363092.775;500;23.11;37565.07
1725363092.825;500;23.11;37565.07
1725363092.875;500;23.11;37565.07
1725363092.925;500;23.11;37565.07
1725363092.976;500;23.11;37565.07
1725363093.026;500;20.90;35044.54
1725363093.077;500;22.05;36354.20
1725363093.128;500;26.42;41329.20
1725363093.178;500;23.30;37778.67
1725363093.227;500;26.54;41463.20
1725363093.277;500;26.54;41463.20
1725363093.328;500;26.54;41463.20
1725363093.378;500;26.54;41463.20
1725363093.428;500;23.57;38083.73
1725363093.478;500;23.90;38463.46
1725363093.528;500;23.10;37552.80
1725363093.578;500;24.38;39003.20
1725363093.628;500;24.38;39003.20
1725363093.679;500;24.38;39003.20
1725363093.729;500;20.65;34763.73
1725363093.779;500;21.08;35254.27
1725363093.829;500;23.45;37951.46
1725363093.878;500;23.11;37562.13
1725363093.928;500;23.11;37562.13
1725363093.978;500;23.11;37562.13
1725363094.029;500;24.68;39348.33
1725363094.079;500;21.06;35232.67
1725363094.128;500;20.91;35056.80
1725363094.179;500;20.24;34294.60
1725363094.228;500;21.03;35189.87
1725363094.278;500;21.03;35189.87
1725363094.328;500;21.03;35189.87
1725363094.379;500;21.03;35189.87
1725363094.429;500;24.45;39093.60
1725363094.478;500;25.56;40352.27
1725363094.529;500;21.93;36221.73
1725363094.580;500;20.43;34508.27
1725363094.630;500;20.43;34508.27
1725363094.680;500;20.43;34508.27
1725363094.729;500;21.86;36136.54
1725363094.779;500;23.56;38080.46
1725363094.829;500;25.86;40691.87
1725363094.880;500;25.26;40014.13
1725363094.930;500;25.26;40014.13
1725363094.980;500;25.26;40014.13
1725363095.030;500;25.26;40014.13
1725363095.080;500;25.98;40828.54
1725363095.130;500;21.71;35973.33
1725363095.180;500;20.61;34712.80
1725363095.230;500;23.06;37500.27
1725363095.281;500;23.55;38064.54
1725363095.330;500;23.55;38064.54
1725363095.381;500;23.55;38064.54
1725363095.430;500;23.38;37872.27
1725363095.481;500;22.45;36815.20
1725363095.531;500;23.02;37462.67
1725363095.581;500;22.67;37063.73
1725363095.631;500;23.33;37810.93
1725363095.682;500;23.33;37810.93
1725363095.732;500;23.33;37810.93
1725363095.782;500;23.33;37810.93
1725363095.831;500;22.75;37149.60
1725363095.882;500;21.94;36229.73
1725363095.931;500;20.99;35143.80
1725363095.982;500;22.31;36649.20
1725363096.031;500;22.31;36649.20
1725363096.082;500;22.31;36649.20
1725363096.132;500;23.35;37832.00
1725363096.182;500;21.65;35898.40
1725363096.232;500;23.98;38550.40
1725363096.282;500;25.95;40794.13
1725363096.333;500;25.95;40794.13
1725363096.384;500;25.95;40794.13
1725363096.433;500;25.95;40794.13
1725363096.484;500;26.55;41476.00
1725363096.533;500;23.55;38069.20
1725363096.584;500;23.61;38130.67
1725363096.634;500;22.68;37072.54
1725363096.684;500;22.68;37072.54
1725363096.734;500;22.68;37072.54
1725363096.784;500;22.68;37072.54
1725363096.834;500;20.75;34869.87
1725363096.884;500;23.92;38485.07
1725363096.933;500;25.31;40069.87
1725363096.984;500;20.59;34695.20
1725363097.034;500;22.63;37013.73
1725363097.085;500;22.63;37013.73
1725363097.135;500;22.63;37013.73
1725363097.185;500;22.63;37013.73
1725363097.235;500;23.26;37727.87
1725363097.285;500;23.78;38322.93
1725363097.335;500;21.16;35347.46
1725363097.385;500;23.23;37704.27
1725363116.004;500;20.17;34214.46
1725363116.053;500;20.17;34214.46
1725363116.103;500;20.17;34214.46
1725363116.255;500;22.23;36555.20
1725363116.305;500;21.15;35325.07
1725363116.355;500;21.15;35325.07
1725363116.405;500;21.15;35325.07
1725363116.455;500;20.82;34952.54
1725363116.505;500;22.42;36779.00
1725363116.557;500;24.91;39606.80
1725363116.605;500;23.70;38235.60
1725363116.655;500;23.70;38235.60
1725363116.705;500;23.70;38235.60
1725363116.755;500;23.70;38235.60
1725363116.805;500;24.34;38960.80
1725363116.855;500;22.80;37205.20
1725363116.905;500;22.63;37016.93
1725363116.955;500;24.59;39248.54
1725363117.006;500;23.04;37481.33
1725363117.055;500;23.04;37481.33
1725363117.105;500;23.04;37481.33
1725363117.155;500;24.41;39042.13
1725363117.206;500;22.47;36828.00
1725363117.256;500;21.60;35841.60
1725363117.306;500;24.94;39651.73
1725363117.356;500;24.94;39651.73
1725363117.405;500;24.94;39651.73
1725363117.455;500;23.40;37895.60
1725363117.505;500;23.53;38036.27
1725363117.555;500;20.63;34734.40
1725363117.605;500;23.83;38379.54
1725363117.656;500;23.83;38379.54
1725363117.706;500;23.83;38379.54
1725363117.756;500;23.83;38379.54
1725363117.806;500;22.14;36460.60
1725363117.859;500;22.75;37153.07
1725363117.906;500;20.66;34776.00
1725363117.956;500;21.57;35810.67
1725363118.006;500;21.57;35810.67
1725363118.057;500;21.57;35810.67
1725363118.106;500;21.57;35810.67
1725363118.156;500;20.26;34318.27
1725363118.206;500;23.46;37961.20
1725363118.256;500;21.46;35688.27
1725363118.306;500;24.06;38646.93
1725363118.356;500;23.06;37508.27
1725363118.406;500;23.06;37508.27
1725363118.457;500;23.06;37508.27
1725363118.507;500;23.06;37508.27
1725363118.556;500;24.85;39548.80
1725363118.606;500;23.32;37806.40
1725363118.656;500;20.41;34482.40
1725363118.706;500;26.90;41882.13
1725363118.756;500;26.90;41882.13
1725363118.806;500;26.90;41882.13
1725363118.856;500;23.63;38156.60
1725363118.907;500;21.38;35591.07
1725363118.957;500;20.33;34398.33
1725363119.007;500;20.37;34446.40
1725363119.056;500;20.37;34446.40
1725363119.107;500;20.37;34446.40
1725363119.156;500;20.60;34708.54
1725363119.207;500;24.16;38757.33
1725363119.257;500;24.16;38757.33
1725363119.307;500;23.01;37443.73
1725363119.356;500;22.72;37119.73
1725363119.406;500;23.89;38448.80
1725363119.456;500;23.89;38448.80
1725363119.506;500;23.89;38448.80
1725363119.556;500;23.70;38230.13
1725363119.606;500;22.72;37120.00
1725363119.657;500;21.66;35914.93
1725363119.707;500;22.21;36541.33
1725363119.756;500;22.21;36541.33
1725363119.807;500;22.21;36541.33
1725363119.856;500;22.21;36541.33
1725363119.906;500;23.63;38150.93
1725363119.958;500;24.18;38781.33
1725363120.008;500;24.92;39628.80
1725363120.058;500;22.69;37082.13
1725363120.108;500;22.69;37082.13
1725363120.158;500;22.69;37082.13
1725363120.208;500;22.69;37082.13
1725363120.258;500;25.59;40381.87
1725363120.309;500;23.39;37877.07
1725363120.358;500;22.62;37008.93
1725363120.408;500;21.25;35443.73
1725363120.458;500;21.25;35443.73
1725363120.509;500;21.25;35443.73
1725363120.559;500;21.25;35443.73
1725363120.608;500;25.50;40282.40
1725363120.659;500;22.41;36762.00
1725363120.709;500;22.25;36580.54
1725363120.809;500;21.45;35674.54
1725363120.859;500;21.45;35674.54
1725363120.908;500;21.45;35674.54
1725363120.960;500;22.55;36930.27
1725363121.010;500;21.03;35188.67
1725363121.060;500;20.14;34175.67
1725363121.111;500;24.39;39019.46
1725363121.160;500;24.39;39019.46
1725363121.210;500;24.39;39019.46
1725363121.262;500;24.39;39019.46
1725363121.312;500;22.28;36612.80
1725363121.362;500;20.62;34727.13
1725363121.412;500;21.01;35173.73
1725363121.462;500;21.18;35365.87
1725363121.512;500;21.18;35365.87
1725363121.562;500;21.18;35365.87
1725363121.612;500;21.18;35365.87
1725363121.661;500;20.40;34473.87
1725363121.712;500;26.24;41127.73
1725363121.762;500;23.59;38105.87
1725363121.812;500;25.45;40232.27
1725363121.861;500;23.06;37500.00
1725363121.913;500;23.06;37500.00
1725363121.962;500;23.06;37500.00
1725363122.013;500;21.58;35820.00
1725363122.063;500;23.09;37536.13
1725363122.114;500;23.17;37632.00
1725363122.163;500;22.56;36933.33
1725363122.214;500;23.65;38182.40
1725363122.264;500;23.65;38182.40
1725363122.314;500;23.65;38182.40
1725363122.363;500;23.65;38182.40
1725363122.415;500;24.63;39296.40
1725363122.465;500;25.96;40806.13
1725363122.515;500;22.03;36329.20
1725363122.565;500;23.54;38052.27
1725363122.615;500;23.54;38052.27
1725363122.665;500;23.54;38052.27
1725363122.715;500;23.54;38052.27
1725363122.765;500;23.42;37911.20
1725363122.815;500;22.77;37170.13
1725363122.865;500;22.75;37150.54
1725363122.915;500;21.05;35211.87
1725363122.966;500;21.05;35211.87
1725363123.015;500;21.05;35211.87
1725363123.065;500;21.05;35211.87
1725363123.116;500;22.58;36960.27
1725363123.165;500;23.99;38560.67
1725363123.215;500;23.43;37921.73
1725363123.266;500;23.68;38209.07
1725363123.466;500;23.17;37630.13
1725363123.516;500;22.98;37412.27
1725363123.566;500;22.09;36398.54
1725363123.616;500;24.03;38613.07
1725363123.667;500;24.03;38613.07
1725363123.717;500;24.03;38613.07
1725363123.766;500;24.03;38613.07
1725363123.816;500;24.03;38613.07
1725363123.867;500;25.16;39894.27
1725363123.917;500;23.73;38269.33
1725363123.967;500;25.81;40635.46
1725363124.017;500;22.63;37015.20
1725363124.068;500;22.63;37015.20
1725363124.118;500;22.63;37015.20
1725363124.167;500;22.63;37015.20
1725363124.218;500;22.63;37015.20
1725363124.267;500;24.47;39115.20
1725363124.317;500;24.65;39316.40
1725363124.369;500;22.85;37262.13
1725363124.419;500;23.17;37636.40
1725363124.468;500;21.30;35505.46
1725363124.518;500;21.30;35505.46
1725363124.568;500;21.30;35505.46
1725363124.620;500;21.30;35505.46
1725363124.670;500;22.12;36429.54
1725363124.721;500;23.05;37489.33
1725363124.770;500;23.46;37958.40
1725363124.820;500;20.13;34167.07
1725363124.871;500;26.00;40852.80
1725363124.920;500;24.87;39569.87
1725363124.972;500;24.87;39569.87
1725363125.021;500;24.87;39569.87
1725363125.072;500;23.75;38293.07
1725363125.122;500;22.67;37066.67
1725363125.172;500;23.47;37971.73
1725363125.222;500;22.24;36569.60
1725363328.716;200;20.15;34195.60
1725363328.766;200;20.15;34195.60
1725363328.816;200;20.15;34195.60
1725363328.916;200;23.00;37434.80
1725363328.966;200;25.91;40752.80
1725363329.016;200;25.91;40752.80
1725363329.067;200;25.91;40752.80
1725363329.116;200;25.91;40752.80
1725363329.166;200;21.61;35851.80
1725363329.217;200;24.68;39347.46
1725363329.267;200;26.59;41520.40
1725363329.317;200;26.59;41520.40
1725363329.366;200;26.59;41520.40
1725363329.417;200;26.59;41520.40
1725363329.467;200;26.59;41520.40
1725363329.517;200;20.80;34929.33
1725363329.567;200;21.12;35295.73
1725363329.816;200;21.54;35772.54
1725363329.867;200;20.78;34909.46
1725363330.217;200;20.77;34900.93
1725363330.466;200;20.85;34986.54
1725363330.567;200;20.67;34786.93
1725363330.766;200;21.74;36005.20
1725363330.818;200;23.30;37779.20
1725363331.068;200;20.31;34373.87
1725363331.119;200;21.54;35780.00
1725363331.419;200;25.90;40741.60
1725363331.770;200;20.46;34550.00
1725363332.072;200;21.62;35868.40
1725363332.321;200;20.72;34844.00
1725363332.422;200;20.25;34301.80
1725363332.472;200;20.25;34301.80
1725363332.523;200;20.25;34301.80
1725363332.573;200;20.36;34430.00
1725363332.673;200;25.17;39903.73
1725363332.725;200;21.02;35181.60
1725363332.775;200;21.02;35181.60
1725363332.825;200;21.02;35181.60
1725363332.875;200;21.07;35233.60
1725363333.025;200;25.98;40826.13
1725363333.076;200;25.98;40826.13
1725363333.125;200;25.98;40826.13
1725363333.175;200;23.45;37953.73
1725363333.326;200;22.44;36797.07
1725363333.376;200;22.44;36797.07
1725363333.426;200;22.44;36797.07
1725363333.476;200;20.84;34982.54
1725363333.526;200;20.36;34432.93
1725363333.576;200;23.86;38421.87
1725363333.626;200;23.86;38421.87
1725363333.676;200;23.86;38421.87
1725363333.726;200;23.86;38421.87
1725363333.776;200;20.70;34818.93
1725363333.877;200;21.22;35407.20
1725363333.926;200;25.18;39916.27
1725363333.977;200;25.18;39916.27
1725363334.026;200;25.18;39916.27
1725363334.084;200;25.18;39916.27
1725363334.180;200;20.40;34478.13
1725363334.230;200;26.41;41322.40
1725363334.280;200;26.41;41322.40
1725363334.330;200;26.41;41322.40
1725363334.381;200;26.41;41322.40
1725363334.430;200;26.41;41322.40
1725363334.481;200;24.16;38756.00
1725363334.530;200;21.24;35433.60
1725363334.581;200;21.54;35776.27
1725363334.630;200;20.49;34582.40
1725363334.680;200;20.49;34582.40
1725363334.731;200;20.49;34582.40
1725363334.781;200;20.49;34582.40
1725363334.831;200;20.49;34582.40
1725363334.881;200;25.14;39872.80
1725363334.931;200;21.31;35508.27
1725363334.982;200;21.93;36216.54
1725363335.031;200;26.50;41422.40
1725363335.082;200;26.79;41756.80
1725363335.132;200;26.79;41756.80
1725363335.182;200;26.79;41756.80
1725363335.232;200;26.79;41756.80
1725363335.281;200;26.54;41468.80
1725363335.332;200;21.50;35725.07
1725363335.382;200;20.34;34412.00
1725363335.632;200;21.14;35316.27
1725363335.683;200;23.29;37762.67
1725363335.733;200;21.87;36150.27
1725363335.782;200;20.80;34927.60
1725363335.833;200;20.80;34927.60
1725363335.883;200;20.80;34927.60
1725363335.932;200;20.80;34927.60
1725363336.033;200;22.58;36958.93
1725363336.082;200;23.28;37756.20
1725363336.132;200;26.37;41270.87
1725363336.183;200;26.37;41270.87
1725363336.240;200;26.37;41270.87
1725363336.286;200;26.37;41270.87
1725363336.336;200;20.68;34798.13
1725363336.437;200;21.24;35432.27
1725363336.486;200;21.24;35432.27
1725363336.537;200;21.24;35432.27
1725363336.586;200;21.24;35432.27
1725363336.637;200;21.24;35432.27
1725363336.686;200;21.96;36256.93
1725363336.737;200;20.98;35136.00
1725363336.787;200;21.56;35796.54
1725363336.837;200;22.23;36565.33
1725363336.888;200;22.23;36565.33
1725363336.937;200;22.23;36565.33
1725363336.987;200;22.23;36565.33
1725363337.038;200;21.18;35368.80
1725363337.088;200;23.66;38186.40
1725363337.138;200;20.66;34772.00
1725363337.189;200;21.84;36115.60
1725363337.239;200;21.84;36115.60
1725363337.290;200;21.84;36115.60
1725363337.340;200;21.84;36115.60
1725363337.439;200;21.09;35258.40
1725363337.490;200;22.48;36844.80
1725363337.539;200;20.45;34532.00
1725363337.590;200;20.94;35096.13
1725363356.215;200;20.46;34550.27
1725363356.266;200;20.46;34550.27
1725363356.316;200;20.46;34550.27
1725363356.366;200;20.46;34550.27
1725363356.466;200;21.18;35363.73
1725363356.516;200;20.87;35014.13
1725363356.567;200;20.87;35014.13
1725363356.616;200;20.87;35014.13
1725363356.667;200;20.87;35014.13
1725363356.767;200;26.53;41458.40
1725363356.817;200;20.39;34459.60
1725363356.867;200;20.71;34831.73
1725363356.917;200;20.71;34831.73
1725363356.967;200;20.71;34831.73
1725363357.017;200;22.06;36362.40
1725363357.068;200;25.29;40049.87
1725363357.117;200;21.86;36139.46
1725363357.168;200;20.13;34173.07
1725363357.218;200;20.13;34173.07
1725363357.268;200;20.13;34173.07
1725363357.317;200;21.54;35780.13
1725363357.417;200;21.30;35504.27
1725363357.468;200;25.50;40283.07
1725363357.517;200;25.50;40283.07
1725363357.568;200;25.50;40283.07
1725363357.618;200;26.53;41452.27
1725363357.767;200;24.25;38864.27
1725363357.819;200;24.25;38864.27
1725363357.868;200;24.25;38864.27
1725363357.918;200;24.25;38864.27
1725363357.969;200;21.08;35252.67
1725363358.069;200;25.50;40281.07
1725363358.620;200;20.12;34161.60
1725363358.970;200;20.46;34540.54
1725363359.171;200;20.17;34209.33
1725363359.221;200;20.18;34223.87
1725363359.421;200;20.93;35083.73
1725363360.676;200;20.30;34360.87
1725363360.725;200;20.20;34251.46
1725363360.926;200;20.86;35000.27
1725363360.976;200;25.56;40349.87
1725363361.027;200;23.21;37673.60
1725363361.076;200;20.13;34170.54
1725363361.126;200;20.13;34170.54
1725363361.176;200;20.13;34170.54
1725363361.225;200;20.13;34170.54
1725363361.276;200;20.50;34593.33
1725363361.326;200;21.48;35710.33
1725363361.376;200;26.95;41932.27
1725363361.426;200;20.50;34592.80
1725363361.476;200;20.50;34592.80
1725363361.527;200;20.50;34592.80
1725363361.577;200;20.50;34592.80
1725363361.626;200;20.26;34311.20
1725363361.676;200;26.10;40971.20
1725363361.727;200;21.73;35992.87
1725363361.776;200;23.87;38431.73
1725363361.827;200;21.11;35284.54
1725363361.877;200;21.11;35284.54
1725363361.926;200;21.11;35284.54
1725363361.977;200;21.11;35284.54
1725363362.027;200;20.54;34632.80
1725363362.128;200;20.26;34312.27
1725363362.178;200;20.90;35049.33
1725363362.229;200;20.90;35049.33
1725363362.279;200;20.90;35049.33
1725363362.330;200;20.90;35049.33
1725363362.380;200;20.90;35049.33
1725363362.431;200;20.89;35030.73
1725363362.581;200;21.48;35702.07
1725363362.630;200;21.48;35702.07
1725363362.680;200;21.48;35702.07
1725363362.732;200;21.48;35702.07
1725363362.781;200;20.96;35110.40
1725363362.833;200;22.29;36625.73
1725363362.983;200;26.98;41972.54
1725363363.032;200;26.98;41972.54
1725363363.083;200;26.98;41972.54
1725363363.133;200;24.61;39271.73
1725363363.182;200;26.99;41985.46
1725363363.234;200;21.03;35194.13
1725363363.284;200;21.47;35699.93
1725363363.334;200;20.63;34733.87
1725363363.584;200;26.10;40970.67
1725363363.635;200;26.05;40912.54
1725363363.685;200;20.88;35019.60
1725363363.935;200;25.58;40378.93
1725363364.035;200;20.15;34189.60
1725363364.235;200;25.53;40324.00
1725363383.313;200;20.17;34219.46
1725363383.363;200;20.42;34496.27
1725363383.763;200;20.52;34610.80
1725363383.813;200;20.52;34610.80
1725363383.864;200;20.52;34610.80
1725363383.914;200;20.61;34719.20
1725363384.063;200;25.90;40742.13
1725363384.113;200;25.90;40742.13
1725363384.164;200;25.90;40742.13
1725363384.213;200;21.76;36023.73
1725363384.265;200;20.23;34278.40
1725363384.315;200;20.84;34982.40
1725363384.516;200;22.32;36658.00
1725363384.566;200;26.95;41934.40
1725363384.616;200;22.61;36987.87
1725363384.666;200;20.36;34428.00
1725363384.716;200;20.36;34428.00
1725363384.767;200;20.36;34428.00
1725363384.867;200;21.50;35730.93
1725363384.917;200;20.19;34239.67
1725363384.967;200;24.34;38965.33
1725363385.016;200;24.34;38965.33
1725363385.068;200;24.34;38965.33
1725363385.117;200;24.34;38965.33
1725363385.167;200;26.75;41707.73
1725363385.217;200;26.95;41934.93
1725363385.468;200;22.81;37224.54
1725363385.568;200;21.32;35527.67
1725363385.618;200;21.32;35527.67
1725363385.668;200;21.32;35527.67
1725363385.819;200;21.50;35723.60
1725363385.868;200;21.17;35357.33
1725363385.918;200;21.17;35357.33
1725363385.969;200;21.17;35357.33
1725363386.020;200;21.56;35799.46
1725363386.069;200;22.26;36591.20
1725363386.119;200;22.36;36708.80
1725363386.169;200;20.72;34837.87
1725363386.219;200;20.72;34837.87
1725363386.269;200;20.72;34837.87
1725363386.319;200;20.90;35048.67
1725363386.371;200;26.55;41480.54
1725363386.421;200;24.83;39519.46
1725363386.471;200;25.82;40650.67
1725363386.521;200;25.82;40650.67
1725363386.571;200;25.82;40650.67
1725363386.622;200;25.82;40650.67
1725363386.671;200;21.67;35918.40
1725363386.772;200;21.34;35549.33
1725363386.823;200;21.34;35549.33
1725363386.872;200;21.34;35549.33
1725363386.922;200;21.34;35549.33
1725363386.973;200;20.36;34434.93
1725363387.023;200;20.80;34932.67
1725363387.073;200;24.61;39274.93
1725363387.122;200;24.61;39274.93
1725363387.172;200;24.61;39274.93
1725363387.223;200;24.61;39274.93
1725363387.280;200;21.48;35701.73
1725363387.328;200;20.95;35106.67
1725363387.378;200;21.45;35672.00
1725363387.428;200;21.45;35672.00
1725363387.478;200;21.45;35672.00
1725363387.528;200;21.45;35672.00
1725363387.577;200;20.16;34204.67
1725363387.678;200;22.34;36686.00
1725363387.728;200;22.34;36686.00
1725363387.778;200;22.34;36686.00
1725363387.828;200;22.34;36686.00
1725363387.878;200;22.34;36686.00
1725363388.029;200;23.26;37730.54
1725363388.078;200;24.65;39318.93
1725363388.129;200;24.65;39318.93
1725363388.179;200;24.65;39318.93
1725363388.229;200;24.65;39318.93
1725363388.280;200;22.70;37097.60
1725363388.330;200;20.13;34173.46
1725363388.380;200;25.76;40584.00
1725363388.430;200;24.72;39398.13
1725363388.480;200;24.72;39398.13
1725363388.530;200;24.72;39398.13
1725363388.580;200;24.72;39398.13
1725363388.630;200;21.97;36269.46
1725363388.680;200;20.76;34890.67
1725363388.730;200;21.35;35562.93
1725363388.780;200;24.06;38641.87
1725363388.830;200;24.06;38641.87
1725363388.881;200;24.06;38641.87
1725363388.930;200;24.06;38641.87
1725363388.980;200;24.06;38641.87
1725363389.030;200;24.06;38641.87
1725363389.080;200;25.51;40293.87
1725363389.131;200;25.46;40240.27
1725363389.181;200;25.89;40726.67
1725363389.231;200;25.11;39839.73
1725363389.281;200;21.46;35679.40
1725363389.331;200;21.46;35679.40
1725363389.381;200;21.46;35679.40
1725363389.431;200;20.42;34503.46
1725363389.481;200;22.81;37219.73
1725363389.531;200;21.76;36025.60
1725363389.581;200;25.10;39826.13
1725363389.631;200;26.16;41041.60
1725363389.681;200;21.37;35578.67
1725363389.731;200;21.37;35578.67
1725363389.780;200;21.37;35578.67
1725363389.831;200;21.37;35578.67
1725363389.880;200;24.39;39023.73
1725363389.931;200;24.17;38769.33
1725363389.982;200;20.19;34234.67
1725363390.033;200;24.89;39584.27
1725363390.082;200;22.39;36746.67
1725363390.132;200;22.39;36746.67
1725363390.182;200;22.39;36746.67
1725363390.232;200;21.32;35522.27
1725363390.283;200;20.47;34560.27
1725363390.383;200;26.14;41009.07
1725363390.433;200;26.14;41009.07
1725363390.483;200;26.14;41009.07
1725363390.533;200;26.14;41009.07
1725363390.583;200;26.26;41151.73
1725363390.633;200;23.06;37502.00
1725363390.683;200;24.11;38703.46
1725363390.734;200;24.21;38815.73
1725363609.282;50;20.14;34181.60
1725363609.533;50;21.39;35600.13
1725363610.485;50;20.19;34241.87
1725363610.535;50;20.19;34241.87
1725363610.585;50;20.19;34241.87
1725363610.635;50;20.19;34241.87
1725363610.835;50;20.70;34819.13
1725363610.885;50;23.49;37997.87
1725363610.935;50;23.49;37997.87
1725363610.986;50;23.49;37997.87
1725363611.036;50;23.02;37462.40
1725363611.136;50;20.65;34757.33
1725363611.186;50;20.65;34766.13
1725363611.236;50;20.65;34766.13
1725363611.287;50;20.65;34766.13
1725363611.336;50;20.65;34766.13
1725363611.437;50;20.59;34691.46
1725363611.487;50;23.27;37745.87
1725363611.537;50;23.27;37745.87
1725363611.587;50;23.27;37745.87
1725363611.637;50;23.68;38212.00
1725363611.787;50;21.59;35827.87
1725363611.836;50;21.59;35827.87
1725363611.886;50;21.59;35827.87
1725363611.936;50;21.59;35827.87
1725363611.987;50;20.23;34281.60
1725363612.037;50;21.33;35538.80
1725363612.187;50;23.71;38242.40
1725363612.237;50;23.71;38242.40
1725363612.287;50;23.71;38242.40
1725363612.337;50;20.34;34405.60
1725363612.486;50;22.67;37058.40
1725363612.537;50;22.67;37058.40
1725363612.587;50;22.67;37058.40
1725363612.737;50;20.44;34520.93
1725363612.787;50;21.32;35527.73
1725363612.837;50;21.32;35527.73
1725363612.887;50;21.32;35527.73
1725363612.937;50;20.52;34616.67
1725363613.087;50;23.29;37769.60
1725363613.137;50;23.29;37769.60
1725363613.188;50;23.29;37769.60
1725363613.238;50;21.39;35606.00
1725363613.388;50;22.68;37074.67
1725363613.439;50;22.68;37074.67
1725363613.488;50;22.68;37074.67
1725363613.539;50;22.68;37074.67
1725363613.588;50;23.40;37896.54
1725363613.688;50;20.15;34186.54
1725363613.940;50;22.12;36439.20
1725363613.990;50;22.68;37074.93
1725363614.340;50;21.38;35597.33
1725363614.390;50;20.14;34180.80
1725363614.440;50;20.14;34180.80
1725363614.491;50;20.14;34180.80
1725363614.541;50;20.14;34180.80
1725363614.592;50;20.87;35011.20
1725363614.642;50;20.96;35110.93
1725363614.691;50;20.49;34583.20
1725363614.741;50;20.60;34704.13
1725363614.793;50;20.59;34694.67
1725363614.842;50;20.59;34694.67
1725363614.893;50;20.59;34694.67
1725363614.993;50;23.52;38028.40
1725363615.043;50;23.03;37474.67
1725363615.094;50;21.07;35244.93
1725363615.144;50;21.07;35244.93
1725363615.195;50;21.07;35244.93
1725363615.245;50;21.07;35244.93
1725363615.295;50;21.38;35595.33
1725363615.345;50;21.38;35595.33
1725363615.445;50;20.12;34156.27
1725363615.496;50;24.48;39121.07
1725363615.545;50;24.24;38845.60
1725363615.595;50;24.24;38845.60
1725363615.646;50;24.24;38845.60
1725363615.695;50;24.24;38845.60
1725363615.746;50;20.88;35027.20
1725363615.796;50;21.21;35398.40
1725363615.896;50;22.84;37251.73
1725363615.946;50;22.88;37300.00
1725363615.996;50;22.88;37300.00
1725363616.046;50;22.88;37300.00
1725363616.096;50;22.88;37300.00
1725363616.147;50;24.30;38920.27
1725363616.196;50;20.48;34571.80
1725363616.297;50;24.54;39192.80
1725363616.346;50;24.54;39192.80
1725363616.398;50;24.54;39192.80
1725363616.448;50;24.54;39192.80
1725363616.497;50;24.54;39192.80
1725363616.548;50;22.99;37423.73
1725363616.598;50;24.16;38761.60
1725363616.649;50;21.62;35866.93
1725363616.699;50;21.46;35684.20
1725363616.749;50;23.70;38229.07
1725363616.800;50;23.70;38229.07
1725363616.850;50;23.70;38229.07
1725363616.901;50;23.70;38229.07
1725363616.951;50;23.44;37939.46
1725363617.001;50;21.26;35452.80
1725363617.052;50;20.84;34978.27
1725363617.101;50;20.51;34598.54
1725363617.202;50;23.10;37546.27
1725363617.253;50;23.10;37546.27
1725363617.303;50;23.10;37546.27
1725363617.354;50;20.12;34162.54
1725363617.404;50;20.36;34432.00
1725363617.453;50;21.53;35760.27
1725363617.503;50;23.77;38319.67
1725363617.553;50;23.83;38385.33
1725363617.603;50;23.83;38385.33
1725363617.653;50;23.83;38385.33
1725363617.703;50;23.83;38385.33
1725363617.753;50;22.78;37188.00
1725363617.804;50;20.76;34883.87
1725363617.853;50;21.06;35225.46
1725363617.905;50;21.09;35261.87
1725363617.954;50;21.44;35657.46
1725363618.005;50;21.44;35657.46
1725363618.054;50;21.44;35657.46
1725363618.105;50;21.44;35657.46
1725363618.154;50;23.57;38085.20
1725363618.205;50;21.74;36004.27
1725363618.305;50;22.71;37109.60
1725363636.815;50;20.29;34354.67
1725363637.165;50;20.55;34643.73
1725363637.215;50;20.55;34643.73
1725363637.265;50;20.55;34643.73
1725363637.367;50;20.64;34749.87
1725363637.417;50;22.74;37143.60
1725363637.466;50;22.74;37143.60
1725363637.516;50;22.74;37143.60
1725363637.567;50;22.88;37298.80
1725363637.617;50;21.90;36188.40
1725363637.666;50;20.32;34384.27
1725363637.716;50;20.36;34425.60
1725363637.766;50;20.36;34425.60
1725363637.817;50;20.36;34425.60
1725363637.867;50;20.98;35139.73
1725363637.918;50;23.74;38277.33
1725363637.969;50;24.86;39550.40
1725363638.018;50;24.86;39550.40
1725363638.069;50;24.86;39550.40
1725363638.118;50;24.86;39550.40
1725363638.171;50;25.05;39767.20
1725363638.219;50;21.11;35279.46
1725363638.269;50;20.41;34485.87
1725363638.320;50;20.41;34485.87
1725363638.370;50;20.41;34485.87
1725363638.419;50;20.41;34485.87
1725363638.470;50;23.84;38394.67
1725363638.520;50;22.03;36337.33
1725363638.570;50;20.59;34695.46
1725363638.771;50;24.86;39554.67
1725363638.821;50;22.25;36577.46
1725363638.871;50;20.60;34698.93
1725363638.921;50;20.46;34549.87
1725363638.970;50;20.46;34549.87
1725363639.021;50;20.46;34549.87
1725363639.071;50;24.04;38617.60
1725363639.120;50;23.00;37432.00
1725363639.171;50;21.50;35729.40
1725363639.220;50;22.94;37372.54
1725363639.270;50;22.94;37372.54
1725363639.322;50;22.94;37372.54
1725363639.371;50;23.77;38313.87
1725363639.421;50;23.47;37968.40
1725363639.472;50;23.59;38112.93
1725363639.521;50;21.07;35244.27
1725363639.573;50;21.07;35244.27
1725363639.622;50;21.07;35244.27
1725363639.672;50;21.07;35244.27
1725363639.723;50;24.81;39493.07
1725363639.772;50;25.00;39711.46
1725363639.822;50;24.78;39461.60
1725363639.873;50;24.78;39461.60
1725363639.923;50;24.78;39461.60
1725363639.973;50;24.78;39461.60
1725363640.023;50;24.78;39461.60
1725363640.123;50;23.18;37647.46
1725363640.173;50;21.99;36283.46
1725363640.223;50;20.57;34671.46
1725363640.273;50;20.57;34671.46
1725363640.323;50;20.57;34671.46
1725363640.374;50;21.38;35597.73
1725363640.423;50;22.34;36681.60
1725363640.477;50;22.34;36681.60
1725363640.523;50;20.64;34748.93
1725363640.573;50;20.64;34748.93
1725363640.624;50;20.64;34748.93
1725363640.674;50;20.63;34739.20
1725363640.723;50;23.78;38320.27
1725363640.773;50;22.73;37133.87
1725363640.825;50;23.52;38034.27
1725363640.875;50;23.52;38034.27
1725363640.925;50;23.52;38034.27
1725363640.975;50;24.09;38680.07
1725363641.025;50;20.38;34449.60
1725363641.125;50;23.59;38104.27
1725363641.176;50;23.59;38104.27
1725363641.226;50;23.59;38104.27
1725363641.276;50;23.95;38523.73
1725363641.326;50;22.70;37090.54
1725363641.425;50;24.63;39291.87
1725363641.475;50;24.63;39291.87
1725363641.526;50;24.63;39291.87
1725363641.575;50;24.63;39291.87
1725363641.626;50;22.63;37013.87
1725363641.677;50;21.91;36192.00
1725363641.776;50;22.92;37344.00
1725363641.827;50;21.55;35782.40
1725363641.877;50;21.55;35782.40
1725363641.926;50;21.55;35782.40
1725363641.977;50;21.55;35782.40
1725363642.028;50;24.01;38588.00
1725363642.079;50;21.68;35934.00
1725363642.128;50;22.18;36503.07
1725363642.178;50;23.08;37525.07
1725363642.228;50;23.08;37525.07
1725363642.279;50;23.08;37525.07
1725363642.329;50;23.08;37525.07
1725363642.379;50;23.74;38278.80
1725363642.430;50;22.25;36583.20
1725363642.479;50;21.46;35688.13
1725363642.730;50;21.84;36111.73
1725363642.780;50;24.26;38871.20
1725363642.888;50;20.58;34678.13
1725363642.935;50;20.42;34493.87
1725363642.985;50;20.42;34493.87
1725363643.035;50;20.42;34493.87
1725363643.085;50;23.99;38561.40
1725363643.185;50;21.72;35983.73
1725363643.235;50;24.66;39322.67
1725363643.286;50;24.66;39322.67
1725363643.335;50;24.66;39322.67
1725363643.386;50;20.55;34641.60
1725363643.436;50;20.23;34285.46
1725363643.487;50;23.97;38537.60
1725363643.536;50;23.97;38537.60
1725363643.586;50;23.97;38537.60
1725363643.636;50;23.97;38537.60
1725363643.686;50;21.81;36084.13
1725363643.736;50;22.85;37265.80
1725363643.786;50;22.23;36561.33
1725363643.836;50;22.23;36561.33
1725363643.887;50;22.23;36561.33
1725363643.937;50;22.23;36561.33
1725363644.036;50;24.54;39193.07
1725363644.086;50;23.93;38494.13
1725363644.137;50;23.93;38494.13
1725363644.187;50;23.93;38494.13
1725363644.237;50;23.93;38494.13
1725363644.286;50;23.83;38385.87
1725363644.337;50;24.29;38902.67
1725363644.386;50;23.63;38150.93
1725363644.438;50;24.94;39650.13
1725363644.488;50;24.94;39650.13
1725363644.537;50;24.94;39650.13
1725363644.588;50;24.94;39650.13
1725363644.638;50;24.94;39650.13
1725363644.688;50;25.28;40033.87
1725363644.737;50;24.02;38598.67
1725363644.788;50;21.57;35806.54
1725363644.839;50;23.25;37724.54
1725363662.348;50;20.17;34215.73
1725363662.398;50;20.35;34415.73
1725363662.448;50;20.19;34242.13
1725363662.498;50;20.19;34242.13
1725363662.549;50;20.19;34242.13
1725363662.648;50;22.76;37160.54
1725363662.700;50;20.35;34417.73
1725363662.750;50;20.35;34417.73
1725363662.800;50;20.35;34417.73
1725363662.849;50;20.35;34417.73
1725363662.900;50;22.25;36588.00
1725363662.950;50;23.51;38020.27
1725363663.001;50;20.70;34814.40
1725363663.051;50;20.70;34814.40
1725363663.101;50;20.70;34814.40
1725363663.151;50;20.70;34814.40
1725363663.201;50;23.56;38078.40
1725363663.251;50;22.41;36761.73
1725363663.300;50;20.12;34156.73
1725363663.351;50;20.12;34156.73
1725363663.401;50;20.12;34156.73
1725363663.452;50;20.12;34156.73
1725363663.501;50;20.19;34232.00
1725363663.602;50;24.41;39046.67
1725363663.652;50;24.78;39460.00
1725363663.702;50;24.78;39460.00
1725363663.752;50;24.78;39460.00
1725363663.802;50;24.78;39460.00
1725363663.852;50;21.01;35174.40
1725363663.902;50;23.69;38226.93
1725363663.952;50;24.30;38923.13
1725363664.003;50;21.62;35860.27
1725363664.053;50;22.36;36711.60
1725363664.103;50;22.36;36711.60
1725363664.153;50;22.36;36711.60
1725363664.203;50;24.13;38727.20
1725363664.253;50;22.20;36529.33
1725363664.303;50;23.65;38176.54
1725363664.353;50;21.26;35461.33
1725363664.403;50;21.26;35461.33
1725363664.453;50;21.26;35461.33
1725363664.503;50;21.46;35682.67
1725363664.553;50;23.42;37916.40
1725363664.604;50;21.10;35273.46
1725363664.653;50;21.94;36232.13
1725363664.704;50;23.47;37978.13
1725363664.753;50;23.47;37978.13
1725363664.804;50;23.47;37978.13
1725363664.855;50;23.47;37978.13
1725363664.905;50;24.54;39195.20
1725363664.956;50;23.66;38191.73
1725363665.005;50;23.90;38462.13
1725363665.055;50;23.57;38082.13
1725363665.105;50;24.04;38617.33
1725363665.155;50;24.04;38617.33
1725363665.206;50;24.04;38617.33
1725363665.256;50;24.04;38617.33
1725363665.306;50;20.93;35081.87
1725363665.356;50;24.97;39677.07
1725363665.456;50;20.86;34998.67
1725363665.505;50;20.86;34998.67
1725363665.556;50;20.86;34998.67
1725363665.607;50;20.90;35044.80
1725363665.657;50;21.10;35273.46
1725363665.756;50;23.47;37977.87
1725363665.807;50;21.64;35888.27
1725363665.857;50;21.64;35888.27
1725363665.907;50;21.64;35888.27
1725363665.957;50;21.64;35888.27
1725363666.007;50;23.55;38060.80
1725363666.108;50;20.21;34254.67
1725363666.158;50;20.61;34716.67
1725363666.207;50;20.61;34716.67
1725363666.257;50;20.61;34716.67
1725363666.308;50;20.61;34716.67
1725363666.459;50;20.77;34903.13
1725363666.508;50;22.90;37328.27
1725363666.559;50;22.90;37328.27
1725363666.608;50;22.90;37328.27
1725363666.659;50;22.90;37328.27
1725363666.759;50;23.35;37832.93
1725363666.808;50;22.68;37073.80
1725363666.859;50;22.68;37073.80
1725363666.908;50;22.68;37073.80
1725363666.958;50;22.68;37073.80
1725363667.009;50;23.37;37855.46
1725363667.059;50;24.39;39015.60
1725363667.159;50;20.80;34928.27
1725363667.209;50;20.80;34928.27
1725363667.259;50;20.80;34928.27
1725363667.310;50;21.05;35219.60
1725363667.360;50;21.92;36207.46
1725363667.410;50;23.66;38189.60
1725363667.461;50;23.75;38286.67
1725363667.511;50;23.75;38286.67
1725363667.561;50;23.75;38286.67
1725363667.611;50;20.16;34203.73
1725363667.661;50;20.13;34163.46
1725363667.710;50;23.85;38409.33
1725363667.761;50;23.85;38409.33
1725363667.810;50;23.85;38409.33
1725363667.862;50;23.85;38409.33
1725363667.912;50;24.96;39668.00
1725363667.962;50;23.84;38399.07
1725363668.012;50;21.80;36066.40
1725363668.062;50;22.01;36309.07
1725363668.113;50;22.01;36309.07
1725363668.162;50;22.01;36309.07
1725363668.213;50;23.79;38342.13
1725363668.263;50;23.79;38338.54
1725363668.312;50;21.20;35385.00
1725363668.362;50;21.08;35253.60
1725363668.662;50;22.68;37074.67
1725363668.714;50;20.46;34544.40
1725363668.765;50;20.30;34364.60
1725363668.814;50;20.30;34364.60
1725363668.865;50;20.30;34364.60
1725363669.016;50;23.30;37774.27
1725363669.266;50;24.85;39540.80
1725364110.695;122;30.00;34166.67
1725364111.046;121;30.00;34240.40
1725364111.596;111;30.00;35020.27
1725364111.947;118;30.00;34451.13
1725364111.998;118;30.00;34451.13
1725364112.048;118;30.00;34451.13
1725364112.097;118;30.00;34451.13
1725364112.148;118;30.00;34451.13
1725364112.249;119;30.00;34371.54
1725364112.299;66;30.00;38771.73
1725364112.349;79;30.00;37654.93
1725364112.398;79;30.00;37654.93
1725364112.450;79;30.00;37654.93
1725364112.499;79;30.00;37702.93
1725364112.599;81;30.00;37506.67
1725364112.651;73;30.00;38143.46
1725364112.700;118;30.00;34455.87
1725364112.752;118;30.00;34455.87
1725364112.801;118;30.00;34455.87
1725364112.851;118;30.00;34455.87
1725364112.952;34;30.00;41342.40
1725364113.001;76;30.00;37931.60
1725364113.052;44;30.00;40558.67
1725364113.101;44;30.00;40558.67
1725364113.152;44;30.00;40558.67
1725364113.201;28;30.00;41865.60
1725364113.252;64;30.00;38925.07
1725364113.302;98;30.00;36069.33
1725364113.352;78;30.00;37719.54
1725364113.401;78;30.00;37719.54
1725364113.452;78;30.00;37719.54
1725364113.508;78;30.00;37719.54
1725364113.552;78;30.00;37719.54
1725364113.601;111;30.00;35034.13
1725364113.652;121;30.00;34186.13
1725364113.702;101;30.00;35866.93
1725364113.752;121;30.00;34194.67
1725364113.801;121;30.00;34194.67
1725364113.852;121;30.00;34194.67
1725364113.902;121;30.00;34194.67
1725364113.952;81;30.00;37487.73
1725364114.002;110;30.00;35088.80
1725364114.102;66;30.00;38731.87
1725364114.153;66;30.00;38731.87
1725364114.203;66;30.00;38731.87
1725364114.253;66;30.00;38731.87
1725364114.303;95;30.00;36390.13
1725364114.352;110;30.00;35079.73
1725364114.404;59;30.00;39302.40
1725364114.455;38;30.00;41065.60
1725364114.504;38;30.00;41065.60
1725364114.555;38;30.00;41065.60
1725364114.605;38;30.00;41065.60
1725364114.655;38;30.00;41065.60
1725364114.705;66;30.00;38721.20
1725364114.755;99;30.00;36006.93
1725364114.805;99;30.00;36061.87
1725364114.855;119;30.00;34367.13
1725364114.905;121;30.00;34233.54
1725364114.955;121;30.00;34233.54
1725364115.005;121;30.00;34233.54
1725364115.055;121;30.00;34233.54
1725364115.105;93;30.00;36556.54
1725364115.155;94;30.00;36447.73
1725364115.206;29;30.00;41822.93
1725364115.255;49;30.00;40128.80
1725364115.305;95;30.00;36316.27
1725364115.356;92;30.00;36610.67
1725364115.405;92;30.00;36610.67
1725364115.455;92;30.00;36610.67
1725364115.556;109;30.00;35223.40
1725364115.605;54;30.00;39721.33
1725364115.656;119;30.00;34394.67
1725364115.706;119;30.00;34394.67
1725364115.756;119;30.00;34394.67
1725364115.806;119;30.00;34394.67
1725364115.856;119;30.00;34394.67
1725364115.905;88;30.00;36957.07
1725364115.956;49;30.00;40116.54
1725364116.006;109;30.00;35180.93
1725364116.057;40;30.00;40848.27
1725364116.106;45;30.00;40457.87
1725364116.156;45;30.00;40457.87
1725364116.206;45;30.00;40457.87
1725364116.256;45;30.00;40457.87
1725364116.306;88;30.00;36965.87
1725364116.356;80;30.00;37580.13
1725364116.407;110;30.00;35124.54
1725364116.456;80;30.00;37583.33
1725364116.506;59;30.00;39289.60
1725364116.556;87;30.00;37020.54
1725364116.607;87;30.00;37020.54
1725364116.657;87;30.00;37020.54
1725364116.708;87;30.00;37020.54
1725364116.758;81;30.00;37503.46
1725364116.808;81;30.00;37503.46
1725364116.858;95;30.00;36341.87
1725364116.908;120;30.00;34280.54
1725364116.958;106;30.00;35438.80
1725364117.008;108;30.00;35319.27
1725364117.058;96;30.00;36304.00
1725364117.108;111;30.00;34998.13
1725364117.159;111;30.00;34998.13
1725364117.209;111;30.00;34998.13
1725364117.258;111;30.00;34998.13
1725364117.308;83;30.00;37379.93
1725364117.359;67;30.00;38677.87
1725364117.408;71;30.00;38365.73
1725364117.458;71;30.00;38307.46
1725364117.509;63;30.00;38996.54
1725364117.558;95;30.00;36333.33
1725364117.608;103;30.00;35653.60
1725364117.659;103;30.00;35653.60
1725364117.708;103;30.00;35653.60
1725364117.758;103;30.00;35653.60
1725364117.808;92;30.00;36581.20
1725364117.859;101;30.00;35838.93
1725364117.909;68;30.00;38545.33
1725364117.959;97;30.00;36146.93
1725364118.009;72;30.00;38213.54
1725364118.059;78;30.00;37773.87
1725364118.109;61;30.00;39123.20
1725364118.159;61;30.00;39123.20
1725364118.209;61;30.00;39123.20
1725364118.260;61;30.00;39123.20
1725364118.310;91;30.00;36706.80
1725364118.360;92;30.00;36628.54
1725364118.460;119;30.00;34400.54
1725364118.509;101;30.00;35837.67
1725364118.560;101;30.00;35863.00
1725364118.610;101;30.00;35863.00
1725364118.660;101;30.00;35863.00
1725364118.710;113;30.00;34858.46
1725364118.760;92;30.00;36618.40
1725364118.861;77;30.00;37841.40
1725364118.911;27;30.00;41992.00
1725364118.961;95;30.00;36339.46
1725364119.011;95;30.00;36339.46
1725364119.062;95;30.00;36339.46
1725364119.112;95;30.00;36339.46
1725364119.162;103;30.00;35667.07
1725364119.262;97;30.00;36218.67
1725364119.312;120;30.00;34294.87
1725364119.362;108;30.00;35295.00
1725364119.412;108;30.00;35295.00
1725364119.462;108;30.00;35295.00
1725364119.513;34;30.00;41378.13
1725364119.613;46;30.00;40424.80
1725364119.662;114;30.00;34775.33
1725364119.714;88;30.00;36947.20
1725364119.764;88;30.00;36947.20
1725364119.814;88;30.00;36947.20
1725364119.864;88;30.00;36947.20
1725364119.914;82;30.00;37390.40
1725364119.963;117;30.00;34546.00
1725364120.015;66;30.00;38741.07
1725364120.065;33;30.00;41418.67
1725364120.115;93;30.00;36555.40
1725364120.165;93;30.00;36555.40
1725364120.215;93;30.00;36555.40
1725364120.266;93;30.00;36555.40
1725364120.315;115;30.00;34737.46
1725364120.366;109;30.00;35159.07
1725364120.415;118;30.00;34484.00
1725364120.466;113;30.00;34893.60
1725364120.516;113;30.00;34893.60
1725364120.566;113;30.00;34893.60
1725364120.616;113;30.00;34893.60
1725364120.666;113;30.00;34893.60
1725364120.716;41;30.00;40838.13
1725364120.766;47;30.00;40296.67
1725364120.817;89;30.00;36866.40
1725364120.866;103;30.00;35673.60
1725364139.335;112;30.00;34949.07
1725364139.435;121;30.00;34215.73
1725364139.485;121;30.00;34215.73
1725364139.535;121;30.00;34215.73
1725364139.585;121;30.00;34215.73
1725364139.685;82;30.00;37453.33
1725364139.735;73;30.00;38127.46
1725364139.786;56;30.00;39601.33
1725364139.835;56;30.00;39601.33
1725364139.885;56;30.00;39601.33
1725364139.936;65;30.00;38798.67
1725364140.036;116;30.00;34643.46
1725364140.086;93;30.00;36511.46
1725364140.135;93;30.00;36511.46
1725364140.187;93;30.00;36511.46
1725364140.236;67;30.00;38677.46
1725364140.387;76;30.00;37876.27
1725364140.436;76;30.00;37876.27
1725364140.487;76;30.00;37876.27
1725364140.537;76;30.00;37876.27
1725364140.587;84;30.00;37248.40
1725364140.636;75;30.00;38010.80
1725364140.787;98;30.00;36101.07
1725364140.837;98;30.00;36101.07
1725364140.887;98;30.00;36101.07
1725364140.937;98;30.00;36101.07
1725364140.988;61;30.00;39113.87
1725364141.039;120;30.00;34295.60
1725364141.088;83;30.00;37327.73
1725364141.138;118;30.00;34468.80
1725364141.189;118;30.00;34468.80
1725364141.239;118;30.00;34468.80
1725364141.289;118;30.00;34468.80
1725364141.339;39;30.00;40942.67
1725364141.389;64;30.00;38886.00
1725364141.439;49;30.00;40138.27
1725364141.489;70;30.00;38389.60
1725364141.539;70;30.00;38389.60
1725364141.589;70;30.00;38389.60
1725364141.639;70;30.00;38389.60
1725364141.690;95;30.00;36324.54
1725364141.740;95;30.00;36324.54
1725364141.891;104;30.00;35600.00
1725364141.941;113;30.00;34904.27
1725364141.990;56;30.00;39590.67
1725364142.041;56;30.00;39590.67
1725364142.091;56;30.00;39590.67
1725364142.142;56;30.00;39590.67
1725364142.192;86;30.00;37126.40
1725364142.242;118;30.00;34456.00
1725364142.292;82;30.00;37457.60
1725364142.341;64;30.00;38893.60
1725364142.391;104;30.00;35623.46
1725364142.443;104;30.00;35623.46
1725364142.492;104;30.00;35623.46
1725364142.544;104;30.00;35623.46
1725364142.594;60;30.00;39222.20
1725364142.643;49;30.00;40108.27
1725364142.695;82;30.00;37411.60
1725364142.745;82;30.00;37411.60
1725364142.794;90;30.00;36739.20
1725364142.845;43;30.00;40625.87
1725364142.895;43;30.00;40625.87
1725364142.945;43;30.00;40625.87
1725364142.995;43;30.00;40625.87
1725364143.045;112;30.00;34958.67
1725364143.095;41;30.00;40820.73
1725364143.146;91;30.00;36651.20
1725364143.196;118;30.00;34425.73
1725364143.246;118;30.00;34425.73
1725364143.296;118;30.00;34425.73
1725364143.346;118;30.00;34425.73
1725364143.396;50;30.00;40095.20
1725364143.446;104;30.00;35571.73
1725364143.496;88;30.00;36940.87
1725364143.546;88;30.00;36940.87
1725364143.596;88;30.00;36940.87
1725364143.646;88;30.00;36940.87
1725364143.697;88;30.00;36940.87
1725364143.796;56;30.00;39530.00
1725364143.847;67;30.00;38681.60
1725364143.897;112;30.00;34909.87
1725364143.946;120;30.00;34257.20
1725364143.997;120;30.00;34257.20
1725364144.046;120;30.00;34257.20
1725364144.097;120;30.00;34257.20
1725364144.147;119;30.00;34358.93
1725364144.198;49;30.00;40125.33
1725364144.247;66;30.00;38750.67
1725364144.297;66;30.00;38752.67
1725364144.348;58;30.00;39376.33
1725364144.398;58;30.00;39376.33
1725364144.447;58;30.00;39376.33
1725364144.497;58;30.00;39376.33
1725364144.547;52;30.00;39869.60
1725364144.598;120;30.00;34253.87
1725364144.697;41;30.00;40824.54
1725364144.747;41;30.00;40824.54
1725364144.798;41;30.00;40824.54
1725364144.847;41;30.00;40824.54
1725364144.897;41;30.00;40824.54
1725364144.948;41;30.00;40761.07
1725364144.998;66;30.00;38745.07
1725364145.048;48;30.00;40225.60
1725364145.098;75;30.00;37981.87
1725364145.149;79;30.00;37701.07
1725364145.199;79;30.00;37701.07
1725364145.249;79;30.00;37701.07
1725364145.301;79;30.00;37701.07
1725364145.351;66;30.00;38764.40
1725364145.451;103;30.00;35651.46
1725364145.502;76;30.00;37898.13
1725364145.552;94;30.00;36414.00
1725364145.601;29;30.00;41771.73
1725364145.652;29;30.00;41771.73
1725364145.702;29;30.00;41771.73
1725364145.752;115;30.00;34710.27
1725364145.801;40;30.00;40856.00
1725364145.852;27;30.00;41935.46
1725364145.902;72;30.00;38247.20
1725364145.952;72;30.00;38247.20
1725364146.002;72;30.00;38247.20
1725364146.052;72;30.00;38247.20
1725364146.102;75;30.00;37966.27
1725364146.152;84;30.00;37250.40
1725364146.202;76;30.00;37879.07
1725364146.252;103;30.00;35724.40
1725364146.302;111;30.00;35021.20
1725364146.352;120;30.00;34270.27
1725364146.402;120;30.00;34270.27
1725364146.452;120;30.00;34270.27
1725364146.502;120;30.00;34270.27
1725364146.602;46;30.00;40405.87
1725364146.653;92;30.00;36636.54
1725364146.703;76;30.00;37910.67
1725364146.753;76;30.00;37910.67
1725364146.803;76;30.00;37910.67
1725364146.853;76;30.00;37910.67
1725364146.953;68;30.00;38608.60
1725364147.003;33;30.00;41469.33
1725364147.053;33;30.00;41469.33
1725364147.103;33;30.00;41469.33
1725364147.154;33;30.00;41469.33
1725364147.204;33;30.00;41469.33
1725364147.254;106;30.00;35442.93
1725364147.303;119;30.00;34357.07
1725364147.353;108;30.00;35264.00
1725364147.403;106;30.00;35425.60
1725364147.653;76;30.00;37876.54
1725364147.704;121;30.00;34215.13
1725364147.803;122;30.00;34166.00
1725364147.853;122;30.00;34166.00
1725364147.903;122;30.00;34166.00
1725364148.004;40;30.00;40856.80
1725364148.104;72;30.00;38250.27
1725364148.154;72;30.00;38250.27
1725364148.205;72;30.00;38250.27
1725364148.254;49;30.00;40162.13
1725364148.305;71;30.00;38354.67
1725364166.373;116;30.00;34583.46
1725364166.422;116;30.00;34583.46
1725364166.473;116;30.00;34583.46
1725364166.522;116;30.00;34583.46
1725364166.573;116;30.00;34587.20
1725364166.823;118;30.00;34425.07
1725364166.873;118;30.00;34425.07
1725364166.924;118;30.00;34425.07
1725364166.973;118;30.00;34425.07
1725364167.024;116;30.00;34643.20
1725364167.073;114;30.00;34808.40
1725364167.125;98;30.00;36094.93
1725364167.175;98;30.00;36094.93
1725364167.226;98;30.00;36094.93
1725364167.276;96;30.00;36229.60
1725364167.326;95;30.00;36318.54
1725364167.376;121;30.00;34218.54
1725364167.426;74;30.00;38064.54
1725364167.476;79;30.00;37692.00
1725364167.527;94;30.00;36426.67
1725364167.577;87;30.00;37011.60
1725364167.627;115;30.00;34706.80
1725364167.677;91;30.00;36660.00
1725364167.726;99;30.00;36028.00
1725364167.778;113;30.00;34896.80
1725364167.827;44;30.00;40534.93
1725364167.877;44;30.00;40534.93
1725364167.927;44;30.00;40534.93
1725364167.978;44;30.00;40534.93
1725364168.028;76;30.00;37929.07
1725364168.078;90;30.00;36760.60
1725364168.128;105;30.00;35563.46
1725364168.178;101;30.00;35843.73
1725364168.228;117;30.00;34519.20
1725364168.279;105;30.00;35547.73
1725364168.329;93;30.00;36522.27
1725364168.388;87;30.00;36969.60
1725364168.430;87;30.00;36969.60
1725364168.479;87;30.00;36969.60
1725364168.529;87;30.00;36969.60
1725364168.580;122;30.00;34156.67
1725364168.630;83;30.00;37339.87
1725364168.679;86;30.00;37107.73
1725364168.729;51;30.00;39970.13
1725364168.780;51;30.00;39972.00
1725364168.831;86;30.00;37111.27
1725364168.882;62;30.00;39069.60
1725364168.932;40;30.00;40911.73
1725364168.982;40;30.00;40911.73
1725364169.032;40;30.00;40911.73
1725364169.082;40;30.00;40911.73
1725364169.132;28;30.00;41829.33
1725364169.182;39;30.00;40975.20
1725364169.232;91;30.00;36683.07
1725364169.283;103;30.00;35697.87
1725364169.333;93;30.00;36497.33
1725364169.384;93;30.00;36497.33
1725364169.433;79;30.00;37681.33
1725364169.483;79;30.00;37681.33
1725364169.532;79;30.00;37681.33
1725364169.583;79;30.00;37681.33
1725364169.634;85;30.00;37196.27
1725364169.683;78;30.00;37748.67
1725364169.734;80;30.00;37557.60
1725364169.783;77;30.00;37797.20
1725364169.834;78;30.00;37786.93
1725364169.884;78;30.00;37786.93
1725364169.934;78;30.00;37786.93
1725364169.984;93;30.00;36515.46
1725364170.034;74;30.00;38069.00
1725364170.085;61;30.00;39138.93
1725364170.134;85;30.00;37151.73
1725364170.184;97;30.00;36200.13
1725364170.234;97;30.00;36200.13
1725364170.285;97;30.00;36200.13
1725364170.334;97;30.00;36200.13
1725364170.384;66;30.00;38709.46
1725364170.434;100;30.00;35962.54
1725364170.484;79;30.00;37642.80
1725364170.535;79;30.00;37642.80
1725364170.585;79;30.00;37642.80
1725364170.635;79;30.00;37642.80
1725364170.685;74;30.00;38081.60
1725364170.735;70;30.00;38428.73
1725364170.786;70;30.00;38428.73
1725364170.836;70;30.00;38428.73
1725364170.885;49;30.00;40135.20
1725364170.936;49;30.00;40135.20
1725364170.985;49;30.00;40135.20
1725364171.035;49;30.00;40135.20
1725364171.085;88;30.00;36924.67
1725364171.136;88;30.00;36924.67
1725364171.185;88;30.00;36924.67
1725364171.236;88;30.00;36924.67
1725364171.285;112;30.00;34952.73
1725364171.335;112;30.00;34952.73
1725364171.386;112;30.00;34952.73
1725364171.436;112;30.00;34952.73
1725364171.486;27;30.00;41992.00
1725364171.536;78;30.00;37759.87
1725364171.586;78;30.00;37759.87
1725364171.636;78;30.00;37759.87
1725364171.687;65;30.00;38844.54
1725364171.938;91;30.00;36710.67
1725364171.987;78;30.00;37765.20
1725364172.037;78;30.00;37765.20
1725364172.087;78;30.00;37765.20
1725364172.137;78;30.00;37765.20
1725364172.187;106;30.00;35468.54
1725364172.237;106;30.00;35468.54
1725364172.287;106;30.00;35468.54
1725364172.337;81;30.00;37525.33
1725364172.387;81;30.00;37525.33
1725364172.438;81;30.00;37525.33
1725364172.487;81;30.00;37525.33
1725364172.537;81;30.00;37525.33
1725364172.587;81;30.00;37525.33
1725364172.637;81;30.00;37525.33
1725364172.688;81;30.00;37525.33
1725364172.737;105;30.00;35535.07
1725364172.788;104;30.00;35588.67
1725364172.838;104;30.00;35588.67
1725364172.888;104;30.00;35588.67
1725364172.938;104;30.00;35588.67
1725364172.988;62;30.00;39040.27
1725364173.038;118;30.00;34447.67
