UnixTimestamp;Microseconds;MilliAmpere;BaseValue
1725961063.641;500;1.00
1725961063.688;500;1.00
1725961063.739;500;1.00
1725961063.789;500;1.00
1725961063.839;500;1.00
1725961063.889;500;1.00
1725961063.939;500;1.00
1725961063.990;500;1.00
1725961064.039;500;1.00
1725961064.091;500;1.00
1725961064.141;500;1.00
1725961064.192;500;1.00
1725961064.242;500;1.00
1725961064.292;500;1.00
1725961064.342;500;1.00
1725961064.392;500;1.00
1725961064.443;500;1.00
1725961064.492;500;1.00
1725961064.542;500;1.00
1725961064.592;500;1.00
1725961067.868;1;40.00
1725961067.920;1;40.00
1725961067.969;1;40.00
1725961068.019;1;40.00
1725961068.070;1;40.00
1725961068.120;1;40.00
1725961068.169;1;40.00
1725961068.220;1;40.00
1725961068.271;1;40.00
1725961068.320;1;40.00
1725961068.370;1;40.00
1725961068.421;1;40.00
1725961068.471;1;40.00
1725961068.523;1;40.00
1725961068.574;1;40.00
1725961068.624;1;40.00
1725961253.304;350;24.69;33632.67
1725961253.354;350;24.69;33632.67
1725961253.404;350;24.69;33632.67
1725961253.454;350;28.37;35018.27
1725961253.505;350;30.66;35883.20
1725961253.554;350;30.66;35883.20
1725961253.604;350;30.66;35883.20
1725961253.654;350;29.99;35631.73
1725961253.705;350;29.99;35631.73
1725961253.754;350;29.99;35631.73
1725961253.805;350;26.94;34478.67
1725961253.854;350;27.97;34868.20
1725961253.904;350;27.97;34868.20
1725961253.955;350;27.97;34868.20
1725961254.005;350;30.36;35770.33
1725961254.054;350;31.96;36375.33
1725961254.105;350;31.96;36375.33
1725961254.155;350;31.96;36375.33
1725961254.206;350;31.98;36381.20
1725961254.255;350;32.00;36389.00
1725961254.306;350;32.00;36389.00
1725961254.356;350;32.00;36389.00
1725961254.405;350;31.16;36071.73
1725961254.456;350;31.16;36071.73
1725961254.506;350;31.16;36071.73
1725961254.557;350;31.99;36383.60
1725961254.608;350;31.99;36383.60
1725961254.657;350;31.99;36383.60
1725961254.707;350;30.22;35717.46
1725961254.758;350;30.22;35717.46
1725961254.809;350;30.22;35717.46
1725961254.858;350;27.60;34729.46
1725961254.908;350;28.07;34905.07
1725961254.958;350;28.07;34905.07
1725961255.008;350;28.07;34905.07
1725961255.058;350;31.54;36216.93
1725961255.108;350;31.54;36216.93
1725961255.159;350;31.54;36216.93
1725961255.208;350;31.56;36224.54
1725961255.258;350;31.56;36224.54
1725961255.308;350;31.56;36224.54
1725961255.358;350;31.56;36224.54
1725961255.408;350;29.39;35404.87
1725961255.459;350;29.39;35404.87
1725961255.510;350;29.39;35404.87
1725961255.559;350;30.97;35999.67
1725961255.610;350;30.97;35999.67
1725961255.659;350;30.97;35999.67
1725961255.710;350;32.00;36389.00
1725961255.760;350;32.00;36389.00
1725961255.818;350;32.00;36389.00
1725961255.861;350;32.00;36389.00
1725961255.911;350;30.64;35877.40
1725961255.961;350;30.64;35877.40
1725961256.011;350;30.64;35877.40
1725961256.061;350;27.38;34645.67
1725961256.111;350;27.38;34645.67
1725961256.161;350;27.38;34645.67
1725961256.211;350;30.61;35862.87
1725961256.261;350;30.61;35862.87
1725961256.311;350;30.61;35862.87
1725961256.361;350;27.25;34597.27
1725961256.411;350;27.25;34597.27
1725961256.462;350;27.25;34597.27
1725961256.513;350;30.00;35633.80
1725961256.563;350;30.00;35633.80
1725961256.612;350;30.00;35633.80
1725961256.662;350;32.00;36389.00
1725961256.713;350;30.50;35821.60
1725961256.763;350;30.50;35821.60
1725961256.813;350;30.50;35821.60
1725961256.864;350;31.47;36189.67
1725961256.913;350;31.47;36189.67
1725961256.963;350;31.47;36189.67
1725961257.013;350;31.92;36359.33
1725961257.064;350;32.00;36389.00
1725961257.115;350;32.00;36389.00
1725961257.164;350;32.00;36389.00
1725961257.214;350;32.00;36389.00
1725961257.265;350;31.90;36349.46
1725961257.315;350;31.90;36349.46
1725961257.365;350;31.90;36349.46
1725961257.415;350;26.78;34420.87
1725961257.465;350;32.00;36389.00
1725961257.515;350;32.00;36389.00
1725961257.565;350;32.00;36389.00
1725961268.550;350;27.91;34846.20
1725961268.601;350;28.16;34940.73
1725961268.651;350;28.16;34940.73
1725961268.701;350;27.67;34756.13
1725961268.751;350;30.20;35708.33
1725961268.801;350;30.26;35732.20
1725961268.851;350;30.26;35732.20
1725961268.901;350;31.95;36369.67
1725961268.951;350;31.96;36375.60
1725961269.001;350;31.96;36375.60
1725961269.051;350;31.96;36375.60
1725961269.101;350;31.57;36225.73
1725961269.151;350;31.57;36225.73
1725961269.201;350;31.57;36225.73
1725961269.251;350;32.00;36389.00
1725961269.301;350;32.00;36389.00
1725961269.351;350;32.00;36389.00
1725961269.402;350;32.00;36389.00
1725961269.452;350;32.00;36389.00
1725961269.501;350;32.00;36389.00
1725961269.553;350;32.00;36389.00
1725961269.603;350;27.51;34694.20
1725961269.653;350;32.00;36389.00
1725961269.703;350;32.00;36389.00
1725961269.753;350;32.00;36389.00
1725961269.802;350;31.94;36366.80
1725961269.853;350;30.10;35671.73
1725961269.904;350;30.10;35671.73
1725961269.954;350;30.10;35671.73
1725961270.004;350;28.11;34921.80
1725961270.054;350;31.96;36374.27
1725961270.104;350;31.96;36374.27
1725961270.154;350;31.96;36374.27
1725961270.205;350;31.80;36313.07
1725961270.255;350;32.00;36389.00
1725961270.304;350;32.00;36389.00
1725961270.354;350;32.00;36389.00
1725961270.404;350;32.00;36389.00
1725961270.455;350;30.93;35987.20
1725961270.504;350;30.93;35987.20
1725961270.555;350;32.00;36389.00
1725961270.606;350;31.10;36048.07
1725961270.656;350;31.10;36048.07
1725961270.705;350;29.97;35623.27
1725961270.756;350;26.17;34189.40
1725961270.806;350;26.17;34189.40
1725961270.855;350;26.43;34288.00
1725961270.906;350;29.14;35308.60
1725961270.956;350;29.14;35308.60
1725961271.005;350;27.84;34818.13
1725961271.055;350;32.00;36389.00
1725961271.105;350;32.00;36389.00
1725961271.155;350;32.00;36389.00
1725961271.205;350;31.59;36236.13
1725961271.256;350;26.98;34495.60
1725961271.305;350;26.98;34495.60
1725961271.357;350;26.98;34495.60
1725961271.406;350;28.57;35095.80
1725961271.457;350;28.50;35067.80
1725961271.507;350;28.50;35067.80
1725961271.557;350;28.78;35175.80
1725961271.607;350;31.40;36161.13
1725961271.657;350;31.40;36161.13
1725961271.707;350;32.00;36389.00
1725961271.758;350;31.41;36166.54
1725961271.808;350;31.41;36166.54
1725961271.858;350;31.41;36166.54
1725961271.909;350;31.85;36333.73
1725961271.959;350;30.51;35825.87
1725961272.009;350;30.51;35825.87
1725961272.059;350;27.48;34683.07
1725961272.109;350;26.45;34294.73
1725961272.159;350;26.45;34294.73
1725961272.210;350;32.00;36389.00
1725961272.261;350;28.86;35205.80
1725961272.311;350;28.86;35205.80
1725961272.360;350;28.86;35205.80
1725961272.411;350;29.17;35322.73
1725961272.461;350;32.00;36389.00
1725961272.512;350;32.00;36389.00
1725961272.561;350;32.00;36389.00
1725961272.612;350;28.72;35152.46
1725961272.661;350;29.25;35353.33
1725961272.712;350;30.16;35693.46
1725961272.762;350;30.16;35693.46
1725961272.811;350;30.16;35693.46
1725961272.862;350;30.79;35933.13
1725961272.911;350;30.19;35706.67
1725961272.961;350;30.19;35706.67
1725961273.011;350;30.19;35706.67
1725961273.062;350;32.00;36389.00
1725961284.777;350;24.55;33578.13
1725961284.827;350;24.55;33578.13
1725961284.878;350;24.55;33578.13
1725961284.927;350;31.85;36330.73
1725961284.978;350;31.87;36339.00
1725961285.027;350;31.87;36339.00
1725961285.077;350;29.85;35576.73
1725961285.128;350;27.27;34603.93
1725961285.178;350;27.27;34603.93
1725961285.228;350;27.27;34603.93
1725961285.279;350;25.85;34070.40
1725961285.328;350;29.37;35398.27
1725961285.378;350;29.37;35398.27
1725961285.428;350;28.52;35075.46
1725961285.478;350;31.68;36268.40
1725961285.528;350;27.11;34545.46
1725961285.579;350;27.11;34545.46
1725961285.628;350;27.11;34545.46
1725961285.679;350;31.47;36187.33
1725961285.729;350;27.96;34865.80
1725961285.779;350;27.96;34865.80
1725961285.829;350;31.01;36016.00
1725961285.880;350;27.95;34861.93
1725961285.930;350;27.95;34861.93
1725961285.980;350;27.95;34861.93
1725961286.030;350;31.54;36213.73
1725961286.080;350;25.14;33802.93
1725961286.130;350;25.14;33802.93
1725961286.180;350;25.14;33802.93
1725961286.229;350;32.00;36389.00
1725961286.280;350;28.60;35107.40
1725961286.329;350;28.60;35107.40
1725961286.380;350;28.60;35107.40
1725961286.430;350;31.99;36385.46
1725961286.480;350;25.69;34007.67
1725961286.531;350;31.20;36087.00
1725961286.581;350;31.20;36087.00
1725961286.630;350;31.20;36087.00
1725961286.682;350;29.46;35429.07
1725961286.731;350;29.54;35459.87
1725961286.782;350;29.54;35459.87
1725961286.831;350;29.54;35459.87
1725961286.882;350;31.82;36320.40
1725961286.932;350;31.36;36148.46
1725961286.982;350;31.36;36148.46
1725961287.032;350;31.36;36148.46
1725961287.082;350;31.95;36368.80
1725961287.132;350;27.03;34513.73
1725961287.182;350;27.03;34513.73
1725961287.233;350;27.03;34513.73
1725961287.283;350;31.46;36185.46
1725961287.334;350;32.00;36389.00
1725961287.383;350;32.00;36389.00
1725961287.434;350;32.00;36389.00
1725961287.483;350;31.49;36198.40
1725961287.534;350;31.83;36324.80
1725961287.584;350;31.83;36324.80
1725961287.634;350;31.83;36324.80
1725961287.685;350;32.00;36389.00
1725961287.734;350;30.93;35984.60
1725961287.785;350;30.93;35984.60
1725961287.834;350;31.42;36171.33
1725961287.884;350;24.40;33522.00
1725961287.935;350;24.40;33522.00
1725961287.985;350;24.40;33522.00
1725961288.035;350;30.89;35969.46
1725961288.085;350;31.77;36302.93
1725961288.135;350;31.77;36302.93
1725961288.186;350;31.77;36302.93
1725961288.235;350;26.25;34221.54
1725961288.285;350;25.57;33964.33
1725961288.335;350;27.82;34811.80
1725961288.386;350;27.82;34811.80
1725961288.435;350;30.07;35662.33
1725961288.486;350;32.00;36389.00
1725961288.535;350;25.85;34068.27
1725961288.585;350;25.85;34068.27
1725961288.635;350;25.90;34087.27
1725961288.685;350;32.00;36389.00
1725961288.736;350;25.83;34062.13
1725961288.786;350;25.83;34062.13
1725961288.836;350;25.83;34062.13
1725961288.886;350;31.77;36300.67
1725961288.936;350;32.00;36389.00
1725961288.987;350;32.00;36389.00
1725961289.036;350;31.88;36343.33
1725961289.086;350;25.69;34009.54
1725961289.136;350;30.79;35931.07
1725961289.187;350;30.79;35931.07
1725961289.236;350;30.79;35931.07
1725961289.287;350;32.00;36389.00
1725961289.337;350;25.69;34008.40
1725961289.387;350;25.69;34008.40
1725961289.437;350;25.69;34008.40
1725961289.537;350;25.10;33787.33
1725961289.587;350;30.68;35890.13
1725961289.636;350;30.68;35890.13
1725961289.688;350;30.68;35890.13
1725961289.737;350;28.07;34908.46
1725961289.788;350;31.32;36133.54
1725961289.837;350;27.87;34829.46
1725961289.888;350;27.87;34829.46
1725961289.937;350;31.37;36150.80
1725961289.987;350;30.36;35769.13
1725961485.283;156;20.00;33370.80
1725961485.333;51;20.00;35908.60
1725961485.383;51;20.00;35908.60
1725961485.433;51;20.00;35908.60
1725961485.483;75;20.00;35324.27
1725961485.533;42;20.00;36129.33
1725961485.584;42;20.00;36129.33
1725961485.633;42;20.00;36129.33
1725961485.683;130;20.00;33997.80
1725961485.733;80;20.00;35215.67
1725961485.783;80;20.00;35215.67
1725961485.835;48;20.00;35987.46
1725961485.885;34;20.00;36336.00
1725961485.934;34;20.00;36336.00
1725961485.986;34;20.00;36336.00
1725961486.037;119;20.00;34273.40
1725961486.087;82;20.00;35169.13
1725961486.136;82;20.00;35169.13
1725961486.186;82;20.00;35169.13
1725961486.236;57;20.00;35763.46
1725961486.286;57;20.00;35763.46
1725961486.336;57;20.00;35763.46
1725961486.387;48;20.00;35989.80
1725961486.436;44;20.00;36079.80
1725961486.487;44;20.00;36079.80
1725961486.536;44;20.00;36079.80
1725961486.586;77;20.00;35282.80
1725961486.637;145;20.00;33629.73
1725961486.687;145;20.00;33629.73
1725961486.737;72;20.00;35402.73
1725961486.787;130;20.00;33987.40
1725961486.837;129;20.00;34020.93
1725961486.887;129;20.00;34020.93
1725961486.936;87;20.00;35028.80
1725961486.987;61;20.00;35677.20
1725961487.037;36;20.00;36278.33
1725961487.087;36;20.00;36278.33
1725961487.137;36;20.00;36278.33
1725961487.187;40;20.00;36190.40
1725961487.238;111;20.00;34451.33
1725961487.288;111;20.00;34451.33
1725961487.338;111;20.00;34451.33
1725961487.388;111;20.00;34451.33
1725961487.438;101;20.00;34698.93
1725961487.488;101;20.00;34698.93
1725961487.538;101;20.00;34698.93
1725961487.588;71;20.00;35433.67
1725961487.638;117;20.00;34316.93
1725961487.688;117;20.00;34316.93
1725961487.737;117;20.00;34316.93
1725961487.788;120;20.00;34234.46
1725961487.838;44;20.00;36094.13
1725961487.888;44;20.00;36094.13
1725961487.937;44;20.00;36094.13
1725961487.988;32;20.00;36381.46
1725961488.038;81;20.00;35182.93
1725961488.088;81;20.00;35182.93
1725961488.138;81;20.00;35182.93
1725961488.188;69;20.00;35480.54
1725961488.238;109;20.00;34516.27
1725961488.288;109;20.00;34516.27
1725961488.338;109;20.00;34516.27
1725961488.388;51;20.00;35903.67
1725961488.438;43;20.00;36110.40
1725961488.488;43;20.00;36110.40
1725961488.538;43;20.00;36110.40
1725961488.588;41;20.00;36156.20
1725961488.639;113;20.00;34398.00
1725961488.688;113;20.00;34398.00
1725961488.739;113;20.00;34416.54
1725961488.789;76;20.00;35313.07
1725961488.839;76;20.00;35313.07
1725961488.889;76;20.00;35313.07
1725961488.939;88;20.00;35019.00
1725961488.989;117;20.00;34322.07
1725961489.039;114;20.00;34389.54
1725961489.090;114;20.00;34389.54
1725961489.140;83;20.00;35148.07
1725961489.190;82;20.00;35164.40
1725961489.239;52;20.00;35893.27
1725961489.290;52;20.00;35893.27
1725961489.340;52;20.00;35893.27
1725961489.389;111;20.00;34450.54
1725961489.440;62;20.00;35643.40
1725961489.490;62;20.00;35643.40
1725961489.540;62;20.00;35643.40
1725961489.590;118;20.00;34297.93
1725961489.640;68;20.00;35509.67
1725961489.690;68;20.00;35509.67
1725961489.741;99;20.00;34753.40
1725961489.791;80;20.00;35205.33
1725961489.841;49;20.00;35971.60
1725961489.891;49;20.00;35971.60
1725961489.941;44;20.00;36080.40
1725961489.991;37;20.00;36257.93
1725961490.040;37;20.00;36257.93
1725961490.090;37;20.00;36257.93
1725961490.141;108;20.00;34526.40
1725961490.191;91;20.00;34932.54
1725961490.241;99;20.00;34746.46
1725961490.292;99;20.00;34746.46
1725961490.341;75;20.00;35334.27
1725961490.391;45;20.00;36064.46
1725961502.190;122;20.00;34191.13
1725961502.240;111;20.00;34447.46
1725961502.290;111;20.00;34447.46
1725961502.340;129;20.00;34017.73
1725961502.391;35;20.00;36312.27
1725961502.440;35;20.00;36312.27
1725961502.490;35;20.00;36312.27
1725961502.540;61;20.00;35669.73
1725961502.591;96;20.00;34809.60
1725961502.641;96;20.00;34809.60
1725961502.691;96;20.00;34809.60
1725961502.741;139;20.00;33765.13
1725961502.792;123;20.00;34161.73
1725961502.842;123;20.00;34161.73
1725961502.892;123;20.00;34161.73
1725961502.941;123;20.00;34161.73
1725961502.992;135;20.00;33880.80
1725961503.042;64;20.00;35604.27
1725961503.093;64;20.00;35604.27
1725961503.143;64;20.00;35604.27
1725961503.193;154;20.00;33417.73
1725961503.243;45;20.00;36049.13
1725961503.293;45;20.00;36049.13
1725961503.344;45;20.00;36049.13
1725961503.394;51;20.00;35922.33
1725961503.445;65;20.00;35578.93
1725961503.495;65;20.00;35578.93
1725961503.544;65;20.00;35578.93
1725961503.594;95;20.00;34847.00
1725961503.644;95;20.00;34847.00
1725961503.695;95;20.00;34847.00
1725961503.744;85;20.00;35083.33
1725961503.794;84;20.00;35120.80
1725961503.845;84;20.00;35120.80
1725961503.894;84;20.00;35120.80
1725961503.944;33;20.00;36340.93
1725961503.994;33;20.00;36340.93
1725961504.044;33;20.00;36340.93
1725961504.095;33;20.00;36340.93
1725961504.145;66;20.00;35556.33
1725961504.195;66;20.00;35556.33
1725961504.245;66;20.00;35556.33
1725961504.296;66;20.00;35556.33
1725961504.345;62;20.00;35641.27
1725961504.396;71;20.00;35424.60
1725961504.445;71;20.00;35424.60
1725961504.497;71;20.00;35424.60
1725961504.547;76;20.00;35299.54
1725961504.597;68;20.00;35494.46
1725961504.647;68;20.00;35494.46
1725961504.697;68;20.00;35494.46
1725961504.747;111;20.00;34465.60
1725961504.797;101;20.00;34699.33
1725961504.846;101;20.00;34699.33
1725961504.897;101;20.00;34699.33
1725961504.947;50;20.00;35931.54
1725961504.996;50;20.00;35931.54
1725961505.047;50;20.00;35931.54
1725961505.098;62;20.00;35642.80
1725961505.147;67;20.00;35514.27
1725961505.198;67;20.00;35514.27
1725961505.247;67;20.00;35514.27
1725961505.297;47;20.00;36013.87
1725961505.347;59;20.00;35724.46
1725961505.397;59;20.00;35724.46
1725961505.447;59;20.00;35724.46
1725961505.498;97;20.00;34791.33
1725961505.548;67;20.00;35522.00
1725961505.598;67;20.00;35522.00
1725961505.647;67;20.00;35522.00
1725961505.698;49;20.00;35972.13
1725961505.748;76;20.00;35309.87
1725961505.798;76;20.00;35309.87
1725961505.848;76;20.00;35309.87
1725961505.899;56;20.00;35805.67
1725961505.948;40;20.00;36173.13
1725961505.998;40;20.00;36173.13
1725961506.048;40;20.00;36173.13
1725961506.098;40;20.00;36173.13
1725961506.148;59;20.00;35723.54
1725961506.199;59;20.00;35723.54
1725961506.249;59;20.00;35723.54
1725961506.299;59;20.00;35723.54
1725961506.350;88;20.00;35004.60
1725961506.400;70;20.00;35447.13
1725961506.450;70;20.00;35447.13
1725961506.500;70;20.00;35447.13
1725961506.550;34;20.00;36320.00
1725961506.600;37;20.00;36243.60
1725961506.650;37;20.00;36243.60
1725961506.699;37;20.00;36243.60
1725961506.750;56;20.00;35802.73
1725961506.800;56;20.00;35802.73
1725961506.850;56;20.00;35802.73
1725961506.900;74;20.00;35359.73
1725961506.951;51;20.00;35909.87
1725961507.001;51;20.00;35909.87
1725961507.051;51;20.00;35909.87
1725961507.101;104;20.00;34628.27
1725961518.942;126;20.00;34090.00
1725961518.992;126;20.00;34090.00
1725961519.042;126;20.00;34090.00
1725961519.092;119;20.00;34269.27
1725961519.142;74;20.00;35361.73
1725961519.192;74;20.00;35361.73
1725961519.243;74;20.00;35361.73
1725961519.292;38;20.00;36222.00
1725961519.343;107;20.00;34565.87
1725961519.393;107;20.00;34565.87
1725961519.443;107;20.00;34565.87
1725961519.493;92;20.00;34924.00
1725961519.543;120;20.00;34231.40
1725961519.593;88;20.00;35022.87
1725961519.643;88;20.00;35022.87
1725961519.693;59;20.00;35720.00
1725961519.744;129;20.00;34016.13
1725961519.793;129;20.00;34016.13
1725961519.843;129;20.00;34016.13
1725961519.894;37;20.00;36256.87
1725961519.943;89;20.00;34987.67
1725961519.994;89;20.00;34987.67
1725961520.044;89;20.00;34987.67
1725961520.094;76;20.00;35314.93
1725961520.143;70;20.00;35446.60
1725961520.193;70;20.00;35446.60
1725961520.244;70;20.00;35446.60
1725961520.294;101;20.00;34698.73
1725961520.345;84;20.00;35125.27
1725961520.395;86;20.00;35068.00
1725961520.445;86;20.00;35068.00
1725961520.495;69;20.00;35486.07
1725961520.545;64;20.00;35608.20
1725961520.594;96;20.00;34811.33
1725961520.644;96;20.00;34811.33
1725961520.695;96;20.00;34811.33
1725961520.745;96;20.00;34811.33
1725961520.795;87;20.00;35040.60
1725961520.844;120;20.00;34227.20
1725961520.894;120;20.00;34227.20
1725961520.944;120;20.00;34227.20
1725961520.994;85;20.00;35079.20
1725961521.044;96;20.00;34815.73
1725961521.095;96;20.00;34815.73
1725961521.145;96;20.00;34815.73
1725961521.195;63;20.00;35634.60
1725961521.244;63;20.00;35634.60
1725961521.295;63;20.00;35634.60
1725961521.345;45;20.00;36056.46
1725961521.395;35;20.00;36302.27
1725961521.444;35;20.00;36302.27
1725961521.495;64;20.00;35588.87
1725961521.545;90;20.00;34956.87
1725961521.594;90;20.00;34956.87
1725961521.644;90;20.00;34956.87
1725961521.695;49;20.00;35975.40
1725961521.745;76;20.00;35302.80
1725961521.795;69;20.00;35471.67
1725961521.845;69;20.00;35471.67
1725961521.895;61;20.00;35670.00
1725961521.945;61;20.00;35678.87
1725961521.995;61;20.00;35678.87
1725961522.044;61;20.00;35678.87
1725961522.096;105;20.00;34592.46
1725961522.146;48;20.00;35977.80
1725961522.196;92;20.00;34925.00
1725961522.245;92;20.00;34925.00
1725961522.295;92;20.00;34925.00
1725961522.345;110;20.00;34477.87
1725961522.396;54;20.00;35848.33
1725961522.445;54;20.00;35848.33
1725961522.495;54;20.00;35836.67
1725961522.547;52;20.00;35880.27
1725961522.596;52;20.00;35880.27
1725961522.647;52;20.00;35880.27
1725961522.696;78;20.00;35249.46
1725961522.746;74;20.00;35364.93
1725961522.796;74;20.00;35364.93
1725961522.847;74;20.00;35364.93
1725961522.899;51;20.00;35909.27
1725961522.948;53;20.00;35876.73
1725961522.998;53;20.00;35876.73
1725961523.049;53;20.00;35876.73
1725961523.099;86;20.00;35064.46
1725961523.150;57;20.00;35757.87
1725961523.199;57;20.00;35757.87
1725961523.249;57;20.00;35757.87
1725961523.299;42;20.00;36141.93
1725961523.349;64;20.00;35602.67
1725961523.400;64;20.00;35602.67
1725961523.450;64;20.00;35602.67
1725961523.500;38;20.00;36223.33
1725961523.550;40;20.00;36173.46
1725961523.600;40;20.00;36173.46
1725961523.650;40;20.00;36173.46
1725961523.700;71;20.00;35434.67
1725961523.750;59;20.00;35718.20
1725961523.800;59;20.00;35718.20
1725961523.850;59;20.00;35718.20
1725961523.901;94;20.00;34880.60
1725961674.965;144;30.00;33658.00
1725961675.015;133;30.00;33927.93
1725961675.065;133;30.00;33927.93
1725961675.115;133;30.00;33927.93
1725961675.165;112;30.00;34429.73
1725961675.214;39;30.00;36204.33
1725961675.265;39;30.00;36204.33
1725961675.315;80;30.00;35205.93
1725961675.365;77;30.00;35286.13
1725961675.414;77;30.00;35286.13
1725961675.465;77;30.00;35286.13
1725961675.514;44;30.00;36087.00
1725961675.565;66;30.00;35555.07
1725961675.615;66;30.00;35555.07
1725961675.665;66;30.00;35555.07
1725961675.715;66;30.00;35555.07
1725961675.765;119;30.00;34257.87
1725961675.815;86;30.00;35064.46
1725961675.865;86;30.00;35064.46
1725961675.914;86;30.00;35064.46
1725961675.965;51;30.00;35913.13
1725961676.014;139;30.00;33772.00
1725961676.065;105;30.00;34613.54
1725961676.115;105;30.00;34613.54
1725961676.165;105;30.00;34613.54
1725961676.215;69;30.00;35468.46
1725961676.265;150;30.00;33505.73
1725961676.315;150;30.00;33505.73
1725961676.364;150;30.00;33505.73
1725961676.415;49;30.00;35961.60
1725961676.465;116;30.00;34327.93
1725961676.516;116;30.00;34327.93
1725961676.566;116;30.00;34327.93
1725961676.616;44;30.00;36095.93
1725961676.666;72;30.00;35415.73
1725961676.717;72;30.00;35415.73
1725961676.766;72;30.00;35415.73
1725961676.817;115;30.00;34364.33
1725961676.868;144;30.00;33663.07
1725961676.917;144;30.00;33663.07
1725961676.967;141;30.00;33716.40
1725961677.018;90;30.00;34978.20
1725961677.068;90;30.00;34978.20
1725961677.117;90;30.00;34978.20
1725961677.168;52;30.00;35884.67
1725961677.218;39;30.00;36199.60
1725961677.267;39;30.00;36199.60
1725961677.318;39;30.00;36199.60
1725961677.368;47;30.00;36024.27
1725961677.418;81;30.00;35192.07
1725961677.469;81;30.00;35192.07
1725961677.519;81;30.00;35192.07
1725961677.570;88;30.00;35010.07
1725961677.620;122;30.00;34177.60
1725961677.670;122;30.00;34177.60
1725961677.721;122;30.00;34177.60
1725961677.771;84;30.00;35122.20
1725961677.821;76;30.00;35311.54
1725961677.871;69;30.00;35471.40
1725961677.922;69;30.00;35471.40
1725961677.971;69;30.00;35471.40
1725961678.023;67;30.00;35523.80
1725961678.073;107;30.00;34560.67
1725961678.124;107;30.00;34560.67
1725961678.174;107;30.00;34560.67
1725961678.223;33;30.00;36354.54
1725961678.273;33;30.00;36354.54
1725961678.324;33;30.00;36354.54
1725961678.374;120;30.00;34234.27
1725961678.423;95;30.00;34846.20
1725961678.475;95;30.00;34846.20
1725961678.524;95;30.00;34846.20
1725961678.574;95;30.00;34846.20
1725961678.624;118;30.00;34281.33
1725961678.674;40;30.00;36177.20
1725961678.725;40;30.00;36177.20
1725961678.774;40;30.00;36177.20
1725961678.825;46;30.00;36041.40
1725961678.875;68;30.00;35497.46
1725961678.925;68;30.00;35497.46
1725961678.975;68;30.00;35497.46
1725961679.025;92;30.00;34923.67
1725961679.075;43;30.00;36102.54
1725961679.124;43;30.00;36102.54
1725961679.175;43;30.00;36102.54
1725961679.225;40;30.00;36185.93
1725961679.275;55;30.00;35813.93
1725961679.325;55;30.00;35813.93
1725961679.378;55;30.00;35813.93
1725961679.425;81;30.00;35183.54
1725961679.476;153;30.00;33440.67
1725961679.525;105;30.00;34613.07
1725961679.576;105;30.00;34613.07
1725961679.626;105;30.00;34613.07
1725961679.677;99;30.00;34757.13
1725961679.726;73;30.00;35389.73
1725961679.776;73;30.00;35389.73
1725961679.826;73;30.00;35389.73
1725961679.876;93;30.00;34903.93
1725961679.928;64;30.00;35591.00
1725961679.978;64;30.00;35591.00
1725961680.027;64;30.00;35591.00
1725961680.077;53;30.00;35856.80
1725961680.128;57;30.00;35758.54
1725961680.177;57;30.00;35758.54
1725961680.227;57;30.00;35758.54
1725961680.277;69;30.00;35486.13
1725961680.327;75;30.00;35336.07
1725961680.377;75;30.00;35336.07
1725961680.428;75;30.00;35336.07
1725961680.478;75;30.00;35336.07
1725961680.528;73;30.00;35374.00
1725961680.577;55;30.00;35817.87
1725961692.267;147;30.00;33582.40
1725961692.318;108;30.00;34540.54
1725961692.367;109;30.00;34507.46
1725961692.417;109;30.00;34507.46
1725961692.467;106;30.00;34571.54
1725961692.517;57;30.00;35764.27
1725961692.567;113;30.00;34401.60
1725961692.618;113;30.00;34401.60
1725961692.667;113;30.00;34401.60
1725961692.718;56;30.00;35799.07
1725961692.767;36;30.00;36276.46
1725961692.817;36;30.00;36276.46
1725961692.867;36;30.00;36276.46
1725961692.918;85;30.00;35094.46
1725961692.968;67;30.00;35527.80
1725961693.018;67;30.00;35527.80
1725961693.067;66;30.00;35550.73
1725961693.118;86;30.00;35073.07
1725961693.168;135;30.00;33870.87
1725961693.217;135;30.00;33870.87
1725961693.268;134;30.00;33894.80
1725961693.317;95;30.00;34853.80
1725961693.368;95;30.00;34853.80
1725961693.418;95;30.00;34853.80
1725961693.468;149;30.00;33526.54
1725961693.518;35;30.00;36304.67
1725961693.569;35;30.00;36304.67
1725961693.620;35;30.00;36304.67
1725961693.670;127;30.00;34068.07
1725961693.720;95;30.00;34834.00
1725961693.769;95;30.00;34834.00
1725961693.820;95;30.00;34834.00
1725961693.870;131;30.00;33977.27
1725961693.920;131;30.00;33960.27
1725961693.970;131;30.00;33960.27
1725961694.021;131;30.00;33960.27
1725961694.072;39;30.00;36208.73
1725961694.120;129;30.00;34023.07
1725961694.170;129;30.00;34023.07
1725961694.220;129;30.00;34023.07
1725961694.271;107;30.00;34548.40
1725961694.322;103;30.00;34650.60
1725961694.371;103;30.00;34650.60
1725961694.421;103;30.00;34650.60
1725961694.472;133;30.00;33934.00
1725961694.522;55;30.00;35822.67
1725961694.571;53;30.00;35868.33
1725961694.622;53;30.00;35868.33
1725961694.672;35;30.00;36297.40
1725961694.722;95;30.00;34850.93
1725961694.772;129;30.00;34029.46
1725961694.821;129;30.00;34029.46
1725961694.872;129;30.00;34029.46
1725961694.923;103;30.00;34644.33
1725961694.973;113;30.00;34414.46
1725961695.023;113;30.00;34414.46
1725961695.074;113;30.00;34414.46
1725961695.123;35;30.00;36300.40
1725961695.173;136;30.00;33855.07
1725961695.223;136;30.00;33855.07
1725961695.273;141;30.00;33722.93
1725961695.324;50;30.00;35950.33
1725961695.373;116;30.00;34339.93
1725961695.423;116;30.00;34339.93
1725961695.474;116;30.00;34339.93
1725961695.523;52;30.00;35882.93
1725961695.573;32;30.00;36389.00
1725961695.623;32;30.00;36389.00
1725961695.675;32;30.00;36389.00
1725961695.725;143;30.00;33681.07
1725961695.775;124;30.00;34132.27
1725961695.825;124;30.00;34132.27
1725961695.876;146;30.00;33594.80
1725961695.926;73;30.00;35371.67
1725961695.976;118;30.00;34288.80
1725961696.026;118;30.00;34288.80
1725961696.076;97;30.00;34793.27
1725961696.127;41;30.00;36168.73
1725961696.176;41;30.00;36168.73
1725961696.227;41;30.00;36168.73
1725961696.276;40;30.00;36190.40
1725961696.327;112;30.00;34429.60
1725961696.377;126;30.00;34093.27
1725961696.427;126;30.00;34093.27
1725961696.477;126;30.00;34093.27
1725961696.527;127;30.00;34076.13
1725961696.578;152;30.00;33465.00
1725961696.628;152;30.00;33465.00
1725961696.678;152;30.00;33465.00
1725961696.728;86;30.00;35061.46
1725961696.778;143;30.00;33673.73
1725961696.828;143;30.00;33673.73
1725961696.879;143;30.00;33673.73
1725961696.929;78;30.00;35258.33
1725961696.978;44;30.00;36075.60
1725961697.029;44;30.00;36075.60
1725961697.079;70;30.00;35457.00
1725961697.129;99;30.00;34759.33
1725961697.178;112;30.00;34435.27
1725961697.229;112;30.00;34435.27
1725961697.279;41;30.00;36146.80
1725961697.329;124;30.00;34138.13
1725961709.544;138;30.00;33805.60
1725961709.595;138;30.00;33805.60
1725961709.645;138;30.00;33805.60
1725961709.746;111;30.00;34461.33
1725961709.795;111;30.00;34461.33
1725961709.846;111;30.00;34461.33
1725961709.897;32;30.00;36389.00
1725961709.946;50;30.00;35938.73
1725961709.997;50;30.00;35938.73
1725961710.046;50;30.00;35938.73
1725961710.096;145;30.00;33623.33
1725961710.147;67;30.00;35517.80
1725961710.196;67;30.00;35517.80
1725961710.247;67;30.00;35517.80
1725961710.297;92;30.00;34923.00
1725961710.347;115;30.00;34352.87
1725961710.397;48;30.00;35993.40
1725961710.447;48;30.00;35993.40
1725961710.496;48;30.00;35993.40
1725961710.547;45;30.00;36063.93
1725961710.597;115;30.00;34349.80
1725961710.647;115;30.00;34349.80
1725961710.698;115;30.00;34349.80
1725961710.747;96;30.00;34816.40
1725961710.798;32;30.00;36389.00
1725961710.847;32;30.00;36389.00
1725961710.898;32;30.00;36389.00
1725961710.948;32;30.00;36389.00
1725961710.997;91;30.00;34952.87
1725961711.048;74;30.00;35366.73
1725961711.098;74;30.00;35366.73
1725961711.148;74;30.00;35366.73
1725961711.198;57;30.00;35763.40
1725961711.247;49;30.00;35973.54
1725961711.298;49;30.00;35973.54
1725961711.349;32;30.00;36389.00
1725961711.399;109;30.00;34512.93
1725961711.449;109;30.00;34512.93
1725961711.500;109;30.00;34512.93
1725961711.550;69;30.00;35477.07
1725961711.600;69;30.00;35477.07
1725961711.651;69;30.00;35477.07
1725961711.701;48;30.00;35990.00
1725961711.750;48;30.00;35990.00
1725961711.801;48;30.00;35990.00
1725961711.850;48;30.00;35990.00
1725961711.901;114;30.00;34388.46
1725961711.951;104;30.00;34619.60
1725961712.001;104;30.00;34619.60
1725961712.051;104;30.00;34619.60
1725961712.101;35;30.00;36315.60
1725961712.152;117;30.00;34303.60
1725961712.201;117;30.00;34303.60
1725961712.253;117;30.00;34303.60
1725961712.303;117;30.00;34303.60
1725961712.353;90;30.00;34966.73
1725961712.404;105;30.00;34608.93
1725961712.454;105;30.00;34608.93
1725961712.503;105;30.00;34608.93
1725961712.554;116;30.00;34333.60
1725961712.604;47;30.00;36007.00
1725961712.654;47;30.00;36007.00
1725961712.704;58;30.00;35736.73
1725961712.755;99;30.00;34742.27
1725961712.806;99;30.00;34742.27
1725961712.855;99;30.00;34742.27
1725961712.905;75;30.00;35333.87
1725961712.955;41;30.00;36151.07
1725961713.011;41;30.00;36151.07
1725961713.058;61;30.00;35666.07
1725961713.108;126;30.00;34094.80
1725961713.158;126;30.00;34094.80
1725961713.208;126;30.00;34094.80
1725961713.258;57;30.00;35773.20
1725961713.309;111;30.00;34446.54
1725961713.359;111;30.00;34446.54
1725961713.409;111;30.00;34446.54
1725961713.459;88;30.00;35028.00
1725961713.509;88;30.00;35028.00
1725961713.561;88;30.00;35028.00
1725961713.610;101;30.00;34711.00
1725961713.660;56;30.00;35803.80
1725961713.710;56;30.00;35803.80
1725961713.760;56;30.00;35803.80
1725961713.811;74;30.00;35355.27
1725961713.861;69;30.00;35483.60
1725961713.911;69;30.00;35483.60
1725961713.961;69;30.00;35483.60
1725961714.011;48;30.00;35987.33
1725961714.061;43;30.00;36101.40
1725961714.112;43;30.00;36101.40
1725961714.162;43;30.00;36101.40
1725961714.212;80;30.00;35200.60
1725961714.262;68;30.00;35490.07
1725961847.323;120;40.00;34241.46
1725961847.373;143;40.00;33677.33
1725961847.423;143;40.00;33677.33
1725961847.472;143;40.00;33677.33
1725961847.523;112;40.00;34443.93
1725961847.573;112;40.00;34443.93
1725961847.623;112;40.00;34443.93
1725961847.674;102;40.00;34687.46
1725961847.724;58;40.00;35747.07
1725961847.774;71;40.00;35437.40
1725961847.824;71;40.00;35437.40
1725961847.874;71;40.00;35437.40
1725961847.924;103;40.00;34660.00
1725961847.974;103;40.00;34660.00
1725961848.024;103;40.00;34660.00
1725961848.074;103;40.00;34660.00
1725961848.125;136;40.00;33849.00
1725961848.175;136;40.00;33849.00
1725961848.224;136;40.00;33849.00
1725961848.274;57;40.00;35781.33
1725961848.325;47;40.00;36014.54
1725961848.375;47;40.00;36014.54
1725961848.425;47;40.00;36014.54
1725961848.475;58;40.00;35755.54
1725961848.525;46;40.00;36031.93
1725961848.575;46;40.00;36031.93
1725961848.625;85;40.00;35097.67
1725961848.675;73;40.00;35375.67
1725961848.725;78;40.00;35268.60
1725961848.776;78;40.00;35268.60
1725961848.825;56;40.00;35783.87
1725961848.876;79;40.00;35242.40
1725961848.926;79;40.00;35242.40
1725961848.976;79;40.00;35242.40
1725961849.026;87;40.00;35049.54
1725961849.076;99;40.00;34737.00
1725961849.126;128;40.00;34055.20
1725961849.177;128;40.00;34055.20
1725961849.227;102;40.00;34675.67
1725961849.277;131;40.00;33981.46
1725961849.327;99;40.00;34744.93
1725961849.378;99;40.00;34744.93
1725961849.427;99;40.00;34744.93
1725961849.526;151;40.00;33484.80
1725961849.576;151;40.00;33484.80
1725961849.628;151;40.00;33484.80
1725961849.678;92;40.00;34922.46
1725961849.728;154;40.00;33408.67
1725961849.778;154;40.00;33408.67
1725961849.828;154;40.00;33408.67
1725961849.879;135;40.00;33874.33
1725961849.929;143;40.00;33680.87
1725961849.979;143;40.00;33680.87
1725961850.030;143;40.00;33680.87
1725961850.079;35;40.00;36304.07
1725961850.129;61;40.00;35684.07
1725961850.181;61;40.00;35684.07
1725961850.231;153;40.00;33437.33
1725961850.282;118;40.00;34293.20
1725961850.331;89;40.00;34988.80
1725961850.382;89;40.00;34988.80
1725961850.432;57;40.00;35770.73
1725961850.482;105;40.00;34598.46
1725961850.533;105;40.00;34598.46
1725961850.583;105;40.00;34598.46
1725961850.634;126;40.00;34094.93
1725961850.683;79;40.00;35232.00
1725961850.733;79;40.00;35232.00
1725961850.783;79;40.00;35232.00
1725961850.833;58;40.00;35756.54
1725961850.883;64;40.00;35601.27
1725961850.933;64;40.00;35601.27
1725961850.983;64;40.00;35601.27
1725961851.033;113;40.00;34402.46
1725961851.084;73;40.00;35391.46
1725961851.134;73;40.00;35391.46
1725961851.184;73;40.00;35391.46
1725961851.234;43;40.00;36109.40
1725961851.283;51;40.00;35905.73
1725961851.333;51;40.00;35905.73
1725961851.383;51;40.00;35905.73
1725961851.433;95;40.00;34839.54
1725961851.484;119;40.00;34259.87
1725961851.534;102;40.00;34677.33
1725961851.583;102;40.00;34677.33
1725961851.633;102;40.00;34677.33
1725961851.683;95;40.00;34848.93
1725961851.733;86;40.00;35059.20
1725961851.784;86;40.00;35059.20
1725961851.834;86;40.00;35059.20
1725961851.884;83;40.00;35139.13
1725961851.934;139;40.00;33780.13
1725961851.983;139;40.00;33780.13
1725961852.033;74;40.00;35360.67
1725961852.084;35;40.00;36302.40
1725961852.134;35;40.00;36302.40
1725961852.184;35;40.00;36302.40
1725961852.233;147;40.00;33593.60
1725961852.284;89;40.00;34989.20
1725961852.334;89;40.00;34989.20
1725961852.384;89;40.00;34989.20
1725961852.434;115;40.00;34349.13
1725961852.484;112;40.00;34422.46
1725961852.534;112;40.00;34422.46
1725961852.584;112;40.00;34422.46
1725961852.634;42;40.00;36140.27
1725961864.470;118;40.00;34295.20
1725961864.520;82;40.00;35153.54
1725961864.570;82;40.00;35153.54
1725961864.620;127;40.00;34070.00
1725961864.671;103;40.00;34648.33
1725961864.721;111;40.00;34455.60
1725961864.772;111;40.00;34455.60
1725961864.822;100;40.00;34733.80
1725961864.872;77;40.00;35276.93
1725961864.922;77;40.00;35276.93
1725961864.972;77;40.00;35276.93
1725961865.022;148;40.00;33567.00
1725961865.122;126;40.00;34081.13
1725961865.173;126;40.00;34081.13
1725961865.223;114;40.00;34373.27
1725961865.323;138;40.00;33811.87
1725961865.374;138;40.00;33811.87
1725961865.423;135;40.00;33868.67
1725961865.473;124;40.00;34134.67
1725961865.523;95;40.00;34857.13
1725961865.574;95;40.00;34857.13
1725961865.724;142;40.00;33692.93
1725961865.774;142;40.00;33692.93
1725961865.825;146;40.00;33601.60
1725961865.875;144;40.00;33643.20
1725961865.924;144;40.00;33643.20
1725961865.975;144;40.00;33643.20
1725961866.025;143;40.00;33676.67
1725961866.075;43;40.00;36102.93
1725961866.225;123;40.00;34160.40
1725961866.276;101;40.00;34699.67
1725961866.325;130;40.00;34000.40
1725961866.376;130;40.00;34000.40
1725961866.425;152;40.00;33469.60
1725961866.475;40;40.00;36184.13
1725961866.526;134;40.00;33909.40
1725961866.576;134;40.00;33909.40
1725961866.626;134;40.00;33909.40
1725961866.677;111;40.00;34445.13
1725961866.726;39;40.00;36209.46
1725961866.777;39;40.00;36209.46
1725961866.826;39;40.00;36209.46
1725961866.877;41;40.00;36161.33
1725961866.927;114;40.00;34374.13
1725961866.977;114;40.00;34374.13
1725961867.027;114;40.00;34374.13
1725961867.078;142;40.00;33713.20
1725961867.128;92;40.00;34914.87
1725961867.178;92;40.00;34914.87
1725961867.228;84;40.00;35107.00
1725961867.278;36;40.00;36275.60
1725961867.329;151;40.00;33478.00
1725961867.378;151;40.00;33478.00
1725961867.429;138;40.00;33808.46
1725961867.479;100;40.00;34719.00
1725961867.630;124;40.00;34131.60
1725961867.679;66;40.00;35540.46
1725961867.731;133;40.00;33920.13
1725961867.781;133;40.00;33920.13
1725961867.831;133;40.00;33920.13
1725961867.883;117;40.00;34308.46
1725961867.933;133;40.00;33918.13
1725961867.984;120;40.00;34233.20
1725961868.034;120;40.00;34233.20
1725961868.084;85;40.00;35079.54
1725961868.134;151;40.00;33483.60
1725961868.184;151;40.00;33483.60
1725961868.234;151;40.00;33483.60
1725961868.285;78;40.00;35266.93
1725961868.334;133;40.00;33932.33
1725961868.384;133;40.00;33932.33
1725961868.434;133;40.00;33932.33
1725961868.485;138;40.00;33808.67
1725961868.534;83;40.00;35128.33
1725961868.585;83;40.00;35128.33
1725961868.635;105;40.00;34594.60
1725961868.684;65;40.00;35572.46
1725961868.734;59;40.00;35709.20
1725961868.784;59;40.00;35709.20
1725961868.834;59;40.00;35709.20
1725961868.884;35;40.00;36314.54
1725961868.935;62;40.00;35657.27
1725961868.984;62;40.00;35657.27
1725961869.036;62;40.00;35657.27
1725961869.086;80;40.00;35215.07
1725961869.137;86;40.00;35070.13
1725961869.187;76;40.00;35310.40
1725961869.237;76;40.00;35310.40
1725961869.287;76;40.00;35310.40
1725961869.337;45;40.00;36063.27
1725961869.387;73;40.00;35368.67
1725961869.436;57;40.00;35768.13
1725961869.486;57;40.00;35768.13
1725961869.537;57;40.00;35768.13
1725961869.586;61;40.00;35662.33
1725961869.637;97;40.00;34804.80
1725961869.687;97;40.00;34804.80
1725961869.737;56;40.00;35800.67
1725961869.787;84;40.00;35121.73
1725961881.832;126;40.00;34082.93
1725961881.882;126;40.00;34082.93
1725961881.933;126;40.00;34082.93
1725961881.984;138;40.00;33789.07
1725961882.033;127;40.00;34071.00
1725961882.084;127;40.00;34071.00
1725961882.134;127;40.00;34071.00
1725961882.184;137;40.00;33824.54
1725961882.234;155;40.00;33388.27
1725961882.284;155;40.00;33388.27
1725961882.334;155;40.00;33388.27
1725961882.384;62;40.00;35652.54
1725961882.435;40;40.00;36177.93
1725961882.484;40;40.00;36177.93
1725961882.534;40;40.00;36177.93
1725961882.584;63;40.00;35621.40
1725961882.634;67;40.00;35538.27
1725961882.685;67;40.00;35538.27
1725961882.734;67;40.00;35538.27
1725961882.784;105;40.00;34591.07
1725961882.834;65;40.00;35577.13
1725961882.885;65;40.00;35577.13
1725961882.934;70;40.00;35442.33
1725961882.985;51;40.00;35905.73
1725961883.034;139;40.00;33781.07
1725961883.085;139;40.00;33781.07
1725961883.134;139;40.00;33781.07
1725961883.184;101;40.00;34698.87
1725961883.234;137;40.00;33816.93
1725961883.285;137;40.00;33816.93
1725961883.336;137;40.00;33816.93
1725961883.386;46;40.00;36042.13
1725961883.436;51;40.00;35922.07
1725961883.485;51;40.00;35922.07
1725961883.536;51;40.00;35922.07
1725961883.585;49;40.00;35965.40
1725961883.636;76;40.00;35315.87
1725961883.685;76;40.00;35315.87
1725961883.735;76;40.00;35315.87
1725961883.786;76;40.00;35315.87
1725961883.836;102;40.00;34683.67
1725961883.885;61;40.00;35675.54
1725961883.936;61;40.00;35675.54
1725961883.985;61;40.00;35675.54
1725961884.035;61;40.00;35667.93
1725961884.086;96;40.00;34811.20
1725961884.136;112;40.00;34433.73
1725961884.186;112;40.00;34433.73
1725961884.236;111;40.00;34463.73
1725961884.287;140;40.00;33746.54
1725961884.336;140;40.00;33746.54
1725961884.388;140;40.00;33746.54
1725961884.438;94;40.00;34877.13
1725961884.487;55;40.00;35815.80
1725961884.538;52;40.00;35891.73
1725961884.587;52;40.00;35891.73
1725961884.638;38;40.00;36234.46
1725961884.688;47;40.00;36007.20
1725961884.739;104;40.00;34620.20
1725961884.788;104;40.00;34620.20
1725961884.838;89;40.00;34993.87
1725961884.888;110;40.00;34475.00
1725961884.938;119;40.00;34264.33
1725961884.989;119;40.00;34264.33
1725961885.039;72;40.00;35414.73
1725961885.089;153;40.00;33444.67
1725961885.139;44;40.00;36095.40
1725961885.189;44;40.00;36095.40
1725961885.240;44;40.00;36095.40
1725961885.289;76;40.00;35319.67
1725961885.339;79;40.00;35243.13
1725961885.391;79;40.00;35243.13
1725961885.441;79;40.00;35243.13
1725961885.490;73;40.00;35370.73
1725961885.542;64;40.00;35595.20
1725961885.591;64;40.00;35595.20
1725961885.643;64;40.00;35595.20
1725961885.693;102;40.00;34670.87
1725961885.743;151;40.00;33495.73
1725961885.793;151;40.00;33495.73
1725961885.843;151;40.00;33495.73
1725961885.893;130;40.00;34003.67
1725961885.944;40;40.00;36194.27
1725961885.993;40;40.00;36194.27
1725961886.043;40;40.00;36194.27
1725961886.093;38;40.00;36226.80
1725961886.144;133;40.00;33919.07
1725961886.194;133;40.00;33919.07
1725961886.244;133;40.00;33919.07
1725961886.293;78;40.00;35260.80
1725961886.543;113;40.00;34417.46
1725961886.594;113;40.00;34417.46
1725961886.644;113;40.00;34417.46
1725961886.694;113;40.00;34417.46
1725961886.744;56;40.00;35782.20
1725961886.794;84;40.00;35120.87
1725961886.844;84;40.00;35120.87
1725961886.893;107;40.00;34547.80
1725961886.943;113;40.00;34410.00
1725961886.993;113;40.00;34410.00
1725961887.043;113;40.00;34410.00
1725961887.094;112;40.00;34435.20
1725962031.193;50;24.83;33683.60
1725962031.243;50;26.19;34196.27
1725962031.293;50;26.19;34196.27
1725962031.343;50;26.19;34196.27
1725962031.393;50;26.85;34444.93
1725962031.443;50;31.18;36079.20
1725962031.493;50;31.18;36079.20
1725962031.543;50;31.18;36079.20
1725962031.593;50;28.06;34901.67
1725962031.643;50;27.98;34872.07
1725962031.693;50;27.98;34872.07
1725962031.744;50;27.98;34872.07
1725962031.794;50;26.35;34259.54
1725962031.843;50;31.11;36052.54
1725962031.893;50;31.33;36135.00
1725962031.944;50;31.33;36135.00
1725962031.994;50;31.49;36198.33
1725962032.044;50;26.72;34399.07
1725962032.094;50;26.77;34414.73
1725962032.144;50;26.77;34414.73
1725962032.195;50;26.77;34414.73
1725962032.245;50;25.43;33910.93
1725962032.294;50;25.45;33917.87
1725962032.345;50;25.45;33917.87
1725962032.395;50;25.45;33917.87
1725962032.444;50;31.27;36113.20
1725962032.495;50;30.07;35660.00
1725962032.545;50;30.07;35660.00
1725962032.595;50;30.07;35660.00
1725962032.646;50;30.17;35699.67
1725962032.696;50;27.19;34576.54
1725962032.745;50;27.19;34576.54
1725962032.796;50;27.19;34576.54
1725962032.845;50;27.81;34807.20
1725962032.895;50;25.89;34084.20
1725962032.945;50;25.89;34084.20
1725962032.996;50;28.28;34986.67
1725962033.046;50;26.12;34172.54
1725962033.097;50;30.15;35690.73
1725962033.146;50;30.15;35690.73
1725962033.196;50;29.46;35430.80
1725962033.247;50;30.49;35817.93
1725962033.296;50;29.41;35413.20
1725962033.346;50;29.41;35413.20
1725962033.396;50;29.41;35413.20
1725962033.447;50;31.43;36172.46
1725962033.496;50;30.41;35788.33
1725962033.546;50;30.41;35788.33
1725962033.596;50;28.35;35013.27
1725962033.646;50;31.07;36036.93
1725962033.698;50;26.89;34460.20
1725962033.747;50;26.89;34460.20
1725962033.797;50;27.52;34701.07
1725962033.847;50;28.60;35105.54
1725962033.898;50;30.04;35650.13
1725962033.947;50;30.04;35650.13
1725962033.999;50;30.59;35855.87
1725962034.049;50;26.88;34457.73
1725962034.099;50;30.67;35887.00
1725962034.149;50;30.67;35887.00
1725962034.198;50;30.67;35887.00
1725962034.248;50;30.88;35967.00
1725962034.299;50;31.37;36151.73
1725962034.349;50;31.37;36151.73
1725962034.400;50;31.37;36151.73
1725962034.451;50;31.37;36151.73
1725962034.500;50;30.82;35942.60
1725962034.551;50;29.78;35553.07
1725962034.600;50;29.78;35553.07
1725962034.651;50;29.78;35553.07
1725962034.702;50;28.93;35231.40
1725962034.751;50;31.01;36017.00
1725962034.803;50;30.58;35853.20
1725962034.853;50;30.58;35853.20
1725962034.903;50;30.09;35666.73
1725962034.953;50;30.12;35681.00
1725962035.003;50;30.12;35681.00
1725962035.053;50;30.12;35681.00
1725962035.103;50;30.50;35822.27
1725962035.153;50;30.75;35917.93
1725962035.203;50;30.75;35917.93
1725962035.253;50;30.75;35917.93
1725962035.303;50;30.30;35747.54
1725962035.354;50;29.98;35626.60
1725962035.404;50;29.98;35626.60
1725962035.453;50;29.98;35626.60
1725962035.504;50;30.25;35729.80
1725962035.553;50;30.67;35887.87
1725962035.603;50;30.67;35887.87
1725962035.654;50;30.67;35887.87
1725962035.703;50;29.35;35388.46
1725962035.754;50;28.80;35181.46
1725962035.804;50;29.95;35615.46
1725962035.853;50;29.95;35615.46
1725962035.904;50;29.95;35615.46
1725962035.954;50;29.91;35600.60
1725962036.004;50;31.22;36096.33
1725962036.054;50;31.22;36096.33
1725962036.105;50;31.22;36096.33
1725962036.154;50;27.56;34713.54
1725962036.204;50;30.01;35637.67
1725962036.255;50;30.01;35637.67
1725962036.304;50;30.13;35684.73
1725962036.354;50;29.52;35455.00
1725962036.405;50;29.36;35392.13
1725962036.454;50;29.36;35392.13
1725962036.505;50;28.52;35076.13
1725962036.554;50;30.43;35796.73
1725962049.017;50;24.97;33737.54
1725962049.067;50;27.77;34792.00
1725962049.117;50;27.77;34792.00
1725962049.167;50;27.77;34792.00
1725962049.218;50;29.70;35519.87
1725962049.268;50;28.38;35024.73
1725962049.318;50;28.38;35024.73
1725962049.368;50;28.38;35024.73
1725962049.419;50;28.82;35188.93
1725962049.469;50;28.75;35161.40
1725962049.519;50;27.83;34815.13
1725962049.569;50;27.83;34815.13
1725962049.619;50;26.49;34311.20
1725962049.669;50;31.22;36093.87
1725962049.719;50;31.22;36093.87
1725962049.769;50;31.22;36093.87
1725962049.819;50;31.18;36081.27
1725962049.869;50;30.82;35943.40
1725962049.919;50;29.49;35442.20
1725962049.969;50;29.49;35442.20
1725962050.019;50;29.82;35566.93
1725962050.069;50;26.78;34420.87
1725962050.119;50;26.78;34420.87
1725962050.169;50;26.78;34420.87
1725962050.219;50;30.12;35678.46
1725962050.269;50;27.94;34859.07
1725962050.319;50;29.47;35436.07
1725962050.370;50;29.47;35436.07
1725962050.419;50;29.43;35421.27
1725962050.469;50;29.50;35445.80
1725962050.520;50;25.71;34015.60
1725962050.570;50;25.71;34015.60
1725962050.619;50;25.71;34015.60
1725962050.669;50;27.54;34707.00
1725962050.719;50;29.18;35326.13
1725962050.770;50;29.18;35326.13
1725962050.819;50;29.18;35326.13
1725962050.869;50;30.67;35888.27
1725962050.920;50;30.30;35749.40
1725962050.970;50;30.30;35749.40
1725962051.019;50;30.30;35749.40
1725962051.070;50;30.49;35818.60
1725962051.119;50;30.49;35820.00
1725962051.170;50;30.49;35820.00
1725962051.220;50;27.71;34770.00
1725962051.271;50;29.58;35475.87
1725962051.321;50;30.62;35868.54
1725962051.371;50;30.62;35868.54
1725962051.421;50;29.79;35557.13
1725962051.471;50;29.86;35583.33
1725962051.521;50;29.86;35583.33
1725962051.571;50;29.86;35583.33
1725962051.621;50;31.69;36273.54
1725962051.672;50;31.92;36358.54
1725962051.721;50;31.92;36358.54
1725962051.771;50;31.92;36358.54
1725962051.821;50;30.84;35951.73
1725962051.871;50;30.84;35951.73
1725962051.921;50;30.84;35951.73
1725962051.971;50;27.59;34726.87
1725962052.021;50;31.59;36233.13
1725962052.071;50;31.59;36233.13
1725962052.122;50;30.89;35971.67
1725962052.172;50;30.91;35976.13
1725962052.222;50;30.64;35874.80
1725962052.271;50;30.64;35874.80
1725962052.322;50;28.07;34907.54
1725962052.373;50;28.64;35121.67
1725962052.423;50;28.63;35116.80
1725962052.473;50;28.63;35116.80
1725962052.523;50;29.44;35421.80
1725962052.573;50;31.26;36108.80
1725962052.623;50;31.58;36232.33
1725962052.673;50;31.58;36232.33
1725962052.723;50;27.41;34657.54
1725962052.773;50;31.39;36158.46
1725962052.823;50;30.41;35790.13
1725962052.874;50;30.41;35790.13
1725962052.923;50;31.49;36195.07
1725962052.974;50;30.85;35954.60
1725962053.024;50;30.88;35968.20
1725962053.074;50;30.88;35968.20
1725962053.125;50;30.88;35968.20
1725962053.174;50;30.18;35702.87
1725962053.224;50;28.34;35008.67
1725962053.275;50;28.34;35008.67
1725962053.324;50;28.34;35008.67
1725962053.375;50;29.66;35507.73
1725962053.424;50;28.46;35053.13
1725962053.475;50;28.46;35053.13
1725962053.524;50;29.39;35403.13
1725962053.574;50;29.56;35466.87
1725962053.624;50;30.21;35715.20
1725962053.675;50;30.21;35715.20
1725962053.725;50;29.54;35460.13
1725962053.775;50;30.10;35672.40
1725962065.683;50;25.31;33865.20
1725962065.733;50;25.31;33865.20
1725962065.783;50;25.31;33865.20
1725962065.833;50;27.22;34587.73
1725962065.883;50;27.22;34587.73
1725962065.934;50;27.22;34587.73
1725962065.984;50;28.38;35021.80
1725962066.036;50;30.79;35931.87
1725962066.085;50;30.79;35931.87
1725962066.136;50;30.79;35931.87
1725962066.185;50;28.31;34997.07
1725962066.236;50;29.66;35506.33
1725962066.287;50;29.66;35506.33
1725962066.336;50;29.66;35506.33
1725962066.388;50;28.88;35210.60
1725962066.437;50;28.09;34913.67
1725962066.487;50;29.64;35497.20
1725962066.538;50;29.64;35497.20
1725962066.587;50;29.64;35497.20
1725962066.637;50;31.05;36031.54
1725962066.687;50;31.44;36179.07
1725962066.739;50;29.13;35307.00
1725962066.789;50;29.13;35307.00
1725962066.838;50;28.89;35214.13
1725962066.888;50;27.08;34534.00
1725962066.939;50;27.08;34534.00
1725962066.989;50;27.08;34534.00
1725962067.039;50;30.08;35666.54
1725962067.089;50;30.34;35762.00
1725962067.139;50;30.34;35762.00
1725962067.189;50;30.74;35913.54
1725962067.240;50;29.32;35379.60
1725962067.289;50;29.32;35379.60
1725962067.339;50;29.32;35379.60
1725962067.389;50;27.86;34828.67
1725962067.438;50;30.58;35851.93
1725962067.489;50;30.58;35851.93
1725962067.539;50;30.58;35851.93
1725962067.590;50;29.09;35293.00
1725962067.640;50;28.39;35026.93
1725962067.689;50;28.39;35026.93
1725962067.739;50;27.41;34656.27
1725962067.790;50;31.80;36311.80
1725962067.840;50;27.74;34782.73
1725962067.889;50;27.74;34782.73
1725962067.939;50;27.74;34782.73
1725962067.989;50;26.42;34282.87
1725962068.040;50;30.95;35991.73
1725962068.089;50;30.95;35991.73
1725962068.140;50;30.95;35991.73
1725962068.190;50;29.47;35433.54
1725962068.239;50;29.33;35380.20
1725962068.290;50;29.33;35380.20
1725962068.339;50;29.33;35380.20
1725962068.389;50;29.46;35429.46
1725962068.439;50;30.78;35927.13
1725962068.489;50;30.78;35927.13
1725962068.540;50;30.78;35927.13
1725962068.589;50;28.95;35238.33
1725962068.639;50;28.36;35016.40
1725962068.689;50;28.36;35016.40
1725962068.739;50;28.36;35016.40
1725962068.789;50;31.25;36107.00
1725962068.840;50;30.65;35878.00
1725962068.890;50;30.65;35878.00
1725962068.940;50;30.65;35878.00
1725962068.990;50;26.38;34267.54
1725962069.040;50;29.92;35605.80
1725962069.090;50;29.92;35605.80
1725962069.140;50;29.92;35605.80
1725962069.190;50;29.73;35532.54
1725962069.240;50;29.49;35442.93
1725962069.290;50;29.49;35442.93
1725962069.340;50;29.49;35442.93
1725962069.390;50;27.93;34854.20
1725962069.440;50;31.67;36263.60
1725962069.490;50;31.67;36263.60
1725962069.540;50;31.67;36263.60
1725962069.590;50;27.85;34825.27
1725962069.640;50;29.57;35473.54
1725962069.690;50;29.57;35473.54
1725962069.741;50;29.57;35473.54
1725962069.791;50;29.98;35625.33
1725962069.840;50;30.51;35828.73
1725962069.891;50;30.51;35828.73
1725962069.940;50;30.51;35828.73
1725962069.991;50;27.31;34620.07
1725962070.040;50;25.64;33990.33
1725962070.090;50;25.64;33990.33
1725962070.141;50;25.64;33990.33
1725962070.191;50;29.12;35302.60
1725962070.241;50;30.14;35687.27
1725962070.290;50;30.14;35687.27
1725962070.340;50;30.14;35687.27
1725962070.391;50;28.30;34995.20
1725962070.441;50;28.62;35113.80
1725962150.124;500;27.06;34526.40
1725962150.174;500;27.06;34526.40
1725962150.224;500;27.06;34526.40
1725962150.274;500;25.23;33835.07
1725962150.324;500;31.46;36184.93
1725962150.374;500;31.46;36184.93
1725962150.424;500;31.46;36184.93
1725962150.474;500;30.82;35942.20
1725962150.525;500;29.67;35509.27
1725962150.575;500;29.67;35509.27
1725962150.626;500;29.67;35509.27
1725962150.676;500;30.60;35862.80
1725962150.726;500;31.96;36373.46
1725962150.776;500;31.96;36373.46
1725962150.825;500;31.96;36373.46
1725962150.875;500;26.20;34200.33
1725962150.926;500;27.29;34611.93
1725962150.975;500;27.29;34611.93
1725962151.026;500;27.29;34611.93
1725962151.076;500;29.57;35471.13
1725962151.126;500;31.61;36242.46
1725962151.176;500;31.61;36242.46
1725962151.226;500;31.61;36242.46
1725962151.276;500;31.91;36355.87
1725962151.326;500;25.49;33934.60
1725962151.376;500;25.49;33934.60
1725962151.426;500;25.49;33934.60
1725962151.476;500;30.38;35777.00
1725962151.526;500;31.35;36145.67
1725962151.576;500;31.35;36145.67
1725962151.625;500;31.35;36145.67
1725962151.675;500;31.64;36254.33
1725962151.727;500;32.00;36389.00
1725962151.777;500;32.00;36389.00
1725962151.827;500;32.00;36389.00
1725962151.877;500;32.00;36389.00
1725962151.927;500;31.85;36330.73
1725962151.977;500;31.85;36330.73
1725962152.027;500;25.83;34062.60
1725962152.077;500;27.77;34794.87
1725962152.128;500;28.09;34914.67
1725962152.179;500;28.09;34914.67
1725962152.228;500;31.93;36361.87
1725962152.279;500;31.99;36384.93
1725962152.329;500;31.99;36384.93
1725962152.379;500;31.99;36384.93
1725962152.428;500;30.59;35858.80
1725962152.480;500;26.42;34286.13
1725962152.529;500;26.42;34286.13
1725962152.580;500;26.42;34286.13
1725962152.629;500;27.91;34844.93
1725962152.680;500;30.27;35735.07
1725962152.729;500;30.27;35735.07
1725962152.780;500;30.27;35735.07
1725962152.829;500;27.47;34680.60
1725962152.879;500;29.98;35628.80
1725962152.931;500;31.12;36056.60
1725962152.981;500;31.12;36056.60
1725962153.030;500;31.12;36056.60
1725962153.082;500;28.92;35226.40
1725962153.131;500;27.68;34759.13
1725962153.182;500;27.68;34759.13
1725962153.231;500;27.68;34759.13
1725962153.282;500;26.08;34157.46
1725962153.333;500;30.96;35995.40
1725962153.383;500;30.96;35995.40
1725962153.432;500;28.96;35241.54
1725962153.483;500;30.86;35960.67
1725962153.533;500;27.16;34562.40
1725962153.583;500;27.16;34562.40
1725962153.634;500;27.16;34562.40
1725962153.684;500;29.49;35441.20
1725962153.733;500;32.00;36389.00
1725962153.783;500;32.00;36389.00
1725962153.833;500;30.86;35958.60
1725962153.883;500;27.79;34799.40
1725962153.933;500;27.87;34830.40
1725962153.984;500;27.87;34830.40
1725962154.034;500;29.97;35622.27
1725962154.083;500;27.73;34778.20
1725962154.133;500;27.73;34778.20
1725962154.184;500;27.73;34778.20
1725962154.233;500;32.00;36389.00
1725962154.284;500;32.00;36389.00
1725962154.333;500;32.00;36389.00
1725962154.384;500;32.00;36389.00
1725962154.433;500;32.00;36389.00
1725962154.483;500;32.00;36389.00
1725962154.534;500;32.00;36389.00
1725962154.584;500;32.00;36389.00
1725962154.633;500;27.39;34650.27
1725962154.683;500;28.45;35048.54
1725962154.734;500;28.45;35048.54
1725962154.784;500;28.45;35048.54
1725962154.834;500;31.86;36336.93
1725962154.884;500;31.86;36336.93
1725962154.934;500;31.86;36336.93
1725962166.993;500;24.72;33641.46
1725962167.043;500;24.72;33641.46
1725962167.094;500;24.72;33641.46
1725962167.143;500;27.34;34631.20
1725962167.194;500;27.34;34631.20
1725962167.244;500;27.34;34631.20
1725962167.294;500;31.90;36351.33
1725962167.344;500;31.91;36355.33
1725962167.394;500;31.91;36355.33
1725962167.444;500;31.92;36357.46
1725962167.494;500;25.09;33782.27
1725962167.544;500;27.42;34661.46
1725962167.593;500;27.42;34661.46
1725962167.644;500;32.00;36389.00
1725962167.694;500;30.85;35956.07
1725962167.744;500;30.85;35956.07
1725962167.794;500;30.85;35956.07
1725962167.844;500;29.02;35263.13
1725962167.894;500;30.25;35730.27
1725962167.944;500;24.92;33718.80
1725962167.994;500;24.92;33718.80
1725962168.044;500;26.16;34186.00
1725962168.095;500;26.58;34346.00
1725962168.145;500;26.52;34321.87
1725962168.196;500;26.52;34321.87
1725962168.245;500;31.29;36121.80
1725962168.295;500;31.65;36258.67
1725962168.345;500;31.65;36258.67
1725962168.395;500;31.65;36258.67
1725962168.446;500;27.53;34702.60
1725962168.496;500;31.56;36221.20
1725962168.547;500;31.56;36221.20
1725962168.597;500;31.56;36221.20
1725962168.646;500;29.74;35538.33
1725962168.696;500;31.64;36253.73
1725962168.747;500;31.64;36253.73
1725962168.797;500;31.64;36253.73
1725962168.847;500;27.61;34733.46
1725962168.897;500;31.60;36237.73
1725962168.947;500;31.60;36237.73
1725962168.998;500;31.60;36237.73
1725962169.047;500;25.34;33878.80
1725962169.097;500;30.99;36009.87
1725962169.148;500;30.99;36009.87
1725962169.197;500;30.99;36009.87
1725962169.247;500;30.27;35736.07
1725962169.298;500;32.00;36389.00
1725962169.348;500;29.19;35328.20
1725962169.398;500;29.19;35328.20
1725962169.448;500;29.19;35328.20
1725962169.497;500;28.79;35177.00
1725962169.547;500;27.88;34834.33
1725962169.597;500;27.88;34834.33
1725962169.648;500;27.88;34834.33
1725962169.699;500;32.00;36389.00
1725962169.748;500;32.00;36389.00
1725962169.798;500;32.00;36389.00
1725962169.848;500;32.00;36389.00
1725962169.899;500;32.00;36389.00
1725962169.949;500;32.00;36389.00
1725962169.999;500;32.00;36389.00
1725962170.049;500;32.00;36389.00
1725962170.100;500;28.63;35118.93
1725962170.150;500;29.78;35551.33
1725962170.200;500;29.78;35551.33
1725962170.250;500;29.78;35551.33
1725962170.300;500;31.99;36383.73
1725962170.349;500;32.00;36388.67
1725962170.400;500;32.00;36388.67
1725962170.449;500;32.00;36388.67
1725962170.499;500;31.46;36186.27
1725962170.549;500;26.37;34265.93
1725962170.599;500;26.37;34265.93
1725962170.651;500;25.09;33783.60
1725962170.701;500;30.13;35682.33
1725962170.750;500;25.96;34110.33
1725962170.801;500;25.96;34110.33
1725962170.850;500;25.96;34110.33
1725962170.900;500;29.72;35530.27
1725962170.951;500;32.00;36389.00
1725962171.000;500;32.00;36389.00
1725962171.052;500;31.72;36285.20
1725962171.102;500;29.90;35596.13
1725962171.152;500;25.41;33905.20
1725962171.203;500;25.41;33905.20
1725962171.252;500;25.41;33905.20
1725962171.303;500;30.68;35892.93
1725962171.353;500;31.09;36046.46
1725962171.403;500;31.09;36046.46
1725962171.453;500;31.09;36046.46
1725962171.503;500;31.30;36125.46
1725962171.553;500;29.80;35560.33
1725962171.604;500;29.80;35560.33
1725962171.654;500;29.80;35560.33
1725962171.704;500;30.84;35952.46
1725962171.753;500;29.25;35350.20
1725962171.804;500;29.25;35350.20
1725962171.854;500;29.25;35350.20
1725962171.904;500;32.00;36389.00
1725962171.954;500;32.00;36389.00
1725962172.004;500;32.00;36389.00
1725962172.054;500;32.00;36389.00
1725962172.105;500;31.02;36019.93
1725962184.250;500;27.24;34595.33
1725962184.302;500;27.24;34595.33
1725962184.351;500;27.24;34595.33
1725962184.402;500;25.74;34029.13
1725962184.452;500;27.77;34792.40
1725962184.502;500;27.77;34792.40
1725962184.551;500;27.77;34792.40
1725962184.602;500;26.67;34379.46
1725962184.652;500;25.55;33956.00
1725962184.702;500;25.55;33956.00
1725962184.752;500;28.30;34994.13
1725962184.802;500;27.02;34511.40
1725962184.852;500;27.30;34617.20
1725962184.902;500;27.30;34617.20
1725962184.952;500;31.98;36380.40
1725962185.002;500;26.78;34418.20
1725962185.052;500;28.44;35046.54
1725962185.102;500;28.44;35046.54
1725962185.152;500;28.44;35046.54
1725962185.202;500;27.58;34722.07
1725962185.252;500;28.86;35205.73
1725962185.303;500;28.86;35205.73
1725962185.353;500;28.86;35205.73
1725962185.403;500;29.86;35580.40
1725962185.453;500;27.86;34827.33
1725962185.503;500;27.86;34827.33
1725962185.553;500;27.86;34827.33
1725962185.603;500;27.86;34827.33
1725962185.653;500;31.19;36082.67
1725962185.703;500;31.19;36082.67
1725962185.753;500;31.19;36082.67
1725962185.803;500;31.24;36103.80
1725962185.853;500;26.36;34261.33
1725962185.903;500;26.36;34261.33
1725962185.954;500;26.36;34261.33
1725962186.004;500;32.00;36389.00
1725962186.053;500;32.00;36389.00
1725962186.104;500;32.00;36389.00
1725962186.153;500;32.00;36389.00
1725962186.203;500;32.00;36389.00
1725962186.254;500;32.00;36389.00
1725962186.304;500;32.00;36389.00
1725962186.354;500;32.00;36389.00
1725962186.404;500;32.00;36389.00
1725962186.454;500;29.32;35376.67
1725962186.504;500;29.32;35376.67
1725962186.554;500;29.32;35376.67
1725962186.605;500;29.32;35376.67
1725962186.655;500;26.95;34485.33
1725962186.705;500;26.95;34485.33
1725962186.755;500;26.95;34485.33
1725962186.805;500;27.01;34507.20
1725962186.856;500;31.15;36067.20
1725962186.906;500;31.15;36067.20
1725962186.956;500;31.15;36067.20
1725962187.005;500;31.15;36067.20
1725962187.057;500;30.30;35747.60
1725962187.106;500;30.30;35747.60
1725962187.157;500;30.30;35747.60
1725962187.206;500;30.30;35747.60
1725962187.256;500;25.62;33982.93
1725962187.307;500;25.62;33982.93
1725962187.358;500;25.62;33982.93
1725962187.409;500;28.58;35100.46
1725962187.458;500;29.41;35410.54
1725962187.508;500;29.41;35410.54
1725962187.559;500;29.41;35410.54
1725962187.609;500;29.41;35410.54
1725962187.658;500;31.97;36378.54
1725962187.708;500;32.00;36389.00
1725962187.758;500;32.00;36389.00
1725962187.809;500;30.49;35820.46
1725962187.859;500;32.00;36389.00
1725962187.909;500;32.00;36389.00
1725962187.959;500;32.00;36389.00
1725962188.009;500;30.67;35887.73
1725962188.059;500;32.00;36389.00
1725962188.110;500;32.00;36389.00
1725962188.159;500;32.00;36389.00
1725962188.209;500;26.02;34133.07
1725962188.260;500;27.11;34545.80
1725962188.309;500;27.11;34545.80
1725962188.359;500;27.11;34545.80
1725962188.409;500;31.53;36211.07
1725962188.459;500;27.51;34693.67
1725962188.510;500;27.51;34693.67
1725962188.560;500;27.51;34693.67
1725962188.609;500;30.65;35878.40
1725962188.659;500;31.96;36372.67
1725962188.710;500;31.96;36372.67
1725962188.759;500;31.96;36372.67
1725962188.809;500;31.96;36372.67
1725962188.860;500;31.99;36385.46
1725962188.910;500;31.99;36385.46
1725962188.959;500;31.99;36385.46
1725962189.010;500;31.99;36385.46
1725962189.060;500;31.98;36381.73
1725962189.110;500;31.98;36381.73
1725962189.160;500;31.98;36381.73
1725962189.211;500;31.98;36381.73
1725962189.261;500;32.00;36389.00
1725962189.311;500;32.00;36389.00
1725962189.360;500;32.00;36389.00
1725962189.411;500;25.45;33920.13
1725962189.461;500;31.98;36382.54
1725962189.511;500;31.98;36382.54
1725962189.561;500;31.98;36382.54
1725962189.611;500;31.98;36382.54
1725962318.833;154;10.00;33418.73
1725962318.883;118;10.00;34296.00
1725962318.933;118;10.00;34296.00
1725962318.983;118;10.00;34296.00
1725962319.033;40;10.00;36190.60
1725962319.083;36;10.00;36274.13
1725962319.133;36;10.00;36274.13
1725962319.183;36;10.00;36274.13
1725962319.234;52;10.00;35887.46
1725962319.284;69;10.00;35472.40
1725962319.334;69;10.00;35472.40
1725962319.385;69;10.00;35472.40
1725962319.434;102;10.00;34679.46
1725962319.485;109;10.00;34505.54
1725962319.534;109;10.00;34505.54
1725962319.584;109;10.00;34505.54
1725962319.635;103;10.00;34662.80
1725962319.685;48;10.00;35999.67
1725962319.734;110;10.00;34487.20
1725962319.785;110;10.00;34487.20
1725962319.834;110;10.00;34487.20
1725962319.885;36;10.00;36268.07
1725962319.935;36;10.00;36268.07
1725962319.985;36;10.00;36268.07
1725962320.034;113;10.00;34411.54
1725962320.085;78;10.00;35260.00
1725962320.135;78;10.00;35260.00
1725962320.185;78;10.00;35260.00
1725962320.235;43;10.00;36098.33
1725962320.285;84;10.00;35123.54
1725962320.335;84;10.00;35123.54
1725962320.385;84;10.00;35123.54
1725962320.435;108;10.00;34520.07
1725962320.485;80;10.00;35203.80
1725962320.535;80;10.00;35203.80
1725962320.585;80;10.00;35203.80
1725962320.636;54;10.00;35847.87
1725962320.685;45;10.00;36061.54
1725962320.735;45;10.00;36061.54
1725962320.786;45;10.00;36061.54
1725962320.836;108;10.00;34524.73
1725962320.886;65;10.00;35568.80
1725962320.936;65;10.00;35568.80
1725962320.986;43;10.00;36100.13
1725962321.037;103;10.00;34645.27
1725962321.087;63;10.00;35625.60
1725962321.137;63;10.00;35625.60
1725962321.188;63;10.00;35625.60
1725962321.238;61;10.00;35679.46
1725962321.288;61;10.00;35679.46
1725962321.338;61;10.00;35679.46
1725962321.388;104;10.00;34635.87
1725962321.439;43;10.00;36102.46
1725962321.489;43;10.00;36102.46
1725962321.539;43;10.00;36102.46
1725962321.588;56;10.00;35797.80
1725962321.638;56;10.00;35797.80
1725962321.688;56;10.00;35797.80
1725962321.739;47;10.00;36010.54
1725962321.789;61;10.00;35684.20
1725962321.838;61;10.00;35684.20
1725962321.889;61;10.00;35684.20
1725962321.939;66;10.00;35539.80
1725962321.989;101;10.00;34705.54
1725962322.039;101;10.00;34705.54
1725962322.089;76;10.00;35304.46
1725962322.139;48;10.00;35988.07
1725962322.189;83;10.00;35135.00
1725962322.239;83;10.00;35135.00
1725962322.289;83;10.00;35135.00
1725962322.340;111;10.00;34466.73
1725962322.390;39;10.00;36199.27
1725962322.440;56;10.00;35795.27
1725962322.490;56;10.00;35795.27
1725962322.540;56;10.00;35795.27
1725962322.590;92;10.00;34916.54
1725962322.639;83;10.00;35128.20
1725962322.690;83;10.00;35128.20
1725962322.740;83;10.00;35128.20
1725962322.791;43;10.00;36103.13
1725962322.840;43;10.00;36103.13
1725962322.891;43;10.00;36103.13
1725962322.941;89;10.00;34989.73
1725962322.992;50;10.00;35930.73
1725962323.042;50;10.00;35930.73
1725962323.092;50;10.00;35930.73
1725962323.142;63;10.00;35615.33
1725962323.192;40;10.00;36181.80
1725962323.242;40;10.00;36181.80
1725962323.291;40;10.00;36181.80
1725962323.342;55;10.00;35823.20
1725962323.391;41;10.00;36146.54
1725962323.442;41;10.00;36146.54
1725962323.492;41;10.00;36146.54
1725962323.543;41;10.00;36146.54
1725962323.598;62;10.00;35645.93
1725962323.645;49;10.00;35974.33
1725962323.695;49;10.00;35974.33
1725962323.745;56;10.00;35791.33
1725962323.794;46;10.00;36031.60
1725962323.845;46;10.00;36031.60
1725962323.895;46;10.00;36031.60
1725962323.945;43;10.00;36109.93
1725962335.674;156;10.00;33367.60
1725962335.724;156;10.00;33367.60
1725962335.774;156;10.00;33367.60
1725962335.825;65;10.00;35577.46
1725962335.875;77;10.00;35288.67
1725962335.924;77;10.00;35288.67
1725962335.974;77;10.00;35288.67
1725962336.026;32;10.00;36376.93
1725962336.076;83;10.00;35144.20
1725962336.126;83;10.00;35144.20
1725962336.175;83;10.00;35144.20
1725962336.226;93;10.00;34905.20
1725962336.276;56;10.00;35793.13
1725962336.326;56;10.00;35793.13
1725962336.376;56;10.00;35793.13
1725962336.426;35;10.00;36313.33
1725962336.476;52;10.00;35888.73
1725962336.526;52;10.00;35888.73
1725962336.576;52;10.00;35888.73
1725962336.626;61;10.00;35670.00
1725962336.677;41;10.00;36155.93
1725962336.726;41;10.00;36155.93
1725962336.776;41;10.00;36155.93
1725962336.826;70;10.00;35453.54
1725962336.876;80;10.00;35222.40
1725962337.027;98;10.00;34785.00
1725962337.078;89;10.00;34984.27
1725962337.128;94;10.00;34875.00
1725962337.178;94;10.00;34875.00
1725962337.227;94;10.00;34875.00
1725962337.278;43;10.00;36106.46
1725962337.327;44;10.00;36084.46
1725962337.378;44;10.00;36084.46
1725962337.427;44;10.00;36084.46
1725962337.478;54;10.00;35835.73
1725962337.528;102;10.00;34663.93
1725962337.578;102;10.00;34663.93
1725962337.628;102;10.00;34663.93
1725962337.678;125;10.00;34119.33
1725962337.728;82;10.00;35153.60
1725962337.778;82;10.00;35153.60
1725962337.828;47;10.00;36017.60
1725962337.879;124;10.00;34150.27
1725962337.928;124;10.00;34150.27
1725962337.979;124;10.00;34150.27
1725962338.029;114;10.00;34396.20
1725962338.080;51;10.00;35927.13
1725962338.129;51;10.00;35927.13
1725962338.179;51;10.00;35927.13
1725962338.230;54;10.00;35841.60
1725962338.279;84;10.00;35112.40
1725962338.331;94;10.00;34866.07
1725962338.381;94;10.00;34866.07
1725962338.431;94;10.00;34866.07
1725962338.480;103;10.00;34659.67
1725962338.531;125;10.00;34107.80
1725962338.581;125;10.00;34107.80
1725962338.631;125;10.00;34107.80
1725962338.681;62;10.00;35651.73
1725962338.731;49;10.00;35974.40
1725962338.782;49;10.00;35974.40
1725962338.831;49;10.00;35974.40
1725962338.881;58;10.00;35735.13
1725962338.932;81;10.00;35179.67
1725962338.981;81;10.00;35179.67
1725962339.033;81;10.00;35179.67
1725962339.083;129;10.00;34008.27
1725962339.133;95;10.00;34846.13
1725962339.183;95;10.00;34846.13
1725962339.233;95;10.00;34846.13
1725962339.283;92;10.00;34925.20
1725962339.333;50;10.00;35928.54
1725962339.383;50;10.00;35928.54
1725962339.433;50;10.00;35928.54
1725962339.483;85;10.00;35079.46
1725962339.534;74;10.00;35349.20
1725962339.584;74;10.00;35349.20
1725962339.634;74;10.00;35349.20
1725962339.685;149;10.00;33523.87
1725962339.734;104;10.00;34618.20
1725962339.785;104;10.00;34618.20
1725962339.834;104;10.00;34618.20
1725962339.885;32;10.00;36389.00
1725962339.934;65;10.00;35570.80
1725962339.985;65;10.00;35570.80
1725962340.035;42;10.00;36143.00
1725962340.085;41;10.00;36151.00
1725962340.134;41;10.00;36151.00
1725962340.184;41;10.00;36151.00
1725962340.236;70;10.00;35450.93
1725962340.286;76;10.00;35307.27
1725962340.336;76;10.00;35307.27
1725962340.386;76;10.00;35307.27
1725962340.436;45;10.00;36061.40
1725962340.486;37;10.00;36258.67
1725962340.536;37;10.00;36258.67
1725962340.586;37;10.00;36258.67
1725962340.636;90;10.00;34977.33
1725962340.686;68;10.00;35497.80
1725962340.736;68;10.00;35497.80
1725962340.786;68;10.00;35497.80
1725962340.836;62;10.00;35636.13
1725962340.886;46;10.00;36033.46
1725962352.740;112;10.00;34441.40
1725962352.790;112;10.00;34441.40
1725962352.840;137;10.00;33832.40
1725962352.891;141;10.00;33731.07
1725962352.941;141;10.00;33731.07
1725962352.991;141;10.00;33731.07
1725962353.041;32;10.00;36389.00
1725962353.091;35;10.00;36292.40
1725962353.140;35;10.00;36292.40
1725962353.191;35;10.00;36292.40
1725962353.241;66;10.00;35542.13
1725962353.291;77;10.00;35287.27
1725962353.341;63;10.00;35629.73
1725962353.391;63;10.00;35629.73
1725962353.440;122;10.00;34197.33
1725962353.492;117;10.00;34314.07
1725962353.541;53;10.00;35857.46
1725962353.592;53;10.00;35857.46
1725962353.642;54;10.00;35853.87
1725962353.693;52;10.00;35879.40
1725962353.743;52;10.00;35879.40
1725962353.793;52;10.00;35879.40
1725962353.843;62;10.00;35651.87
1725962353.893;94;10.00;34878.60
1725962353.943;94;10.00;34878.60
1725962353.993;94;10.00;34878.60
1725962354.043;50;10.00;35933.33
1725962354.093;64;10.00;35594.46
1725962354.143;93;10.00;34897.67
1725962354.193;93;10.00;34897.67
1725962354.243;93;10.00;34897.67
1725962354.293;113;10.00;34414.27
1725962354.343;32;10.00;36389.00
1725962354.393;32;10.00;36389.00
1725962354.443;74;10.00;35362.93
1725962354.493;76;10.00;35296.13
1725962354.543;89;10.00;35001.73
1725962354.594;89;10.00;35001.73
1725962354.644;89;10.00;35001.73
1725962354.694;47;10.00;36017.67
1725962354.743;57;10.00;35779.80
1725962354.794;57;10.00;35779.80
1725962354.845;57;10.00;35779.80
1725962354.895;88;10.00;35023.00
1725962354.944;95;10.00;34856.73
1725962354.995;95;10.00;34856.73
1725962355.045;95;10.00;34856.73
1725962355.095;68;10.00;35508.20
1725962355.145;42;10.00;36141.27
1725962355.195;42;10.00;36141.27
1725962355.245;42;10.00;36141.27
1725962355.295;57;10.00;35768.67
1725962355.346;54;10.00;35832.13
1725962355.397;54;10.00;35832.13
1725962355.446;54;10.00;35832.13
1725962355.497;42;10.00;36140.46
1725962355.546;84;10.00;35115.46
1725962355.597;84;10.00;35115.46
1725962355.646;73;10.00;35388.93
1725962355.696;50;10.00;35945.27
1725962355.746;65;10.00;35568.00
1725962355.796;65;10.00;35568.00
1725962355.848;47;10.00;36001.00
1725962355.899;47;10.00;36010.07
1725962355.949;47;10.00;36010.07
1725962355.999;47;10.00;36010.07
1725962356.049;45;10.00;36063.80
1725962356.099;69;10.00;35467.60
1725962356.149;66;10.00;35554.20
1725962356.198;66;10.00;35554.20
1725962356.250;66;10.00;35554.20
1725962356.299;44;10.00;36091.67
1725962356.349;67;10.00;35536.20
1725962356.399;67;10.00;35536.20
1725962356.449;67;10.00;35536.20
1725962356.501;70;10.00;35455.00
1725962356.550;63;10.00;35618.40
1725962356.600;63;10.00;35618.40
1725962356.650;68;10.00;35497.13
1725962356.700;50;10.00;35950.07
1725962356.750;93;10.00;34905.33
1725962356.800;93;10.00;34905.33
1725962356.850;52;10.00;35886.20
1725962356.901;72;10.00;35398.54
1725962356.951;72;10.00;35398.54
1725962357.001;72;10.00;35398.54
1725962357.051;66;10.00;35558.27
1725962357.100;48;10.00;35978.46
1725962357.151;48;10.00;35978.46
1725962357.201;48;10.00;35978.46
1725962357.251;52;10.00;35890.00
1725962357.302;48;10.00;35989.27
1725962357.352;48;10.00;35989.27
1725962357.402;41;10.00;36152.33
1725962357.452;67;10.00;35516.60
1725962357.501;67;10.00;35534.73
1725962357.553;67;10.00;35534.73
1725962357.603;58;10.00;35741.20
1725962357.653;85;10.00;35086.20
1725962357.703;85;10.00;35086.20
1725962357.753;85;10.00;35086.20
1725962357.803;69;10.00;35486.40
1725962569.823;200;27.42;34661.33
1725962569.873;200;27.42;34661.33
1725962569.923;200;27.42;34661.33
1725962569.973;200;31.39;36157.40
1725962570.023;200;31.39;36157.40
1725962570.073;200;31.39;36157.40
1725962570.123;200;28.93;35231.33
1725962570.173;200;32.00;36389.00
1725962570.223;200;32.00;36389.00
1725962570.273;200;32.00;36389.00
1725962570.324;200;31.28;36118.07
1725962570.374;200;31.28;36118.07
1725962570.424;200;31.28;36118.07
1725962570.474;200;26.52;34320.27
1725962570.524;200;25.66;33998.93
1725962570.574;200;25.66;33998.93
1725962570.624;200;28.68;35135.00
1725962570.674;200;32.00;36389.00
1725962570.724;200;32.00;36389.00
1725962570.774;200;32.00;36389.00
1725962570.826;200;32.00;36389.00
1725962570.876;200;32.00;36389.00
1725962570.927;200;32.00;36389.00
1725962570.976;200;32.00;36389.00
1725962571.027;200;31.66;36262.00
1725962571.077;200;31.66;36262.00
1725962571.126;200;31.66;36262.00
1725962571.177;200;31.55;36220.13
1725962571.226;200;31.71;36279.60
1725962571.277;200;31.71;36279.60
1725962571.327;200;31.71;36279.60
1725962571.377;200;30.97;36002.33
1725962571.427;200;28.02;34887.33
1725962571.477;200;28.74;35160.54
1725962571.527;200;28.74;35160.54
1725962571.577;200;26.23;34212.46
1725962571.627;200;28.46;35051.93
1725962571.677;200;30.40;35784.80
1725962571.726;200;30.40;35784.80
1725962571.777;200;27.18;34571.13
1725962571.827;200;27.73;34778.93
1725962571.877;200;30.02;35640.46
1725962571.927;200;30.02;35640.46
1725962571.977;200;27.17;34565.87
1725962572.027;200;25.94;34103.67
1725962572.077;200;27.33;34627.27
1725962572.127;200;27.33;34627.27
1725962572.177;200;27.33;34627.27
1725962572.227;200;31.93;36364.13
1725962572.277;200;31.67;36263.60
1725962572.328;200;31.67;36263.60
1725962572.379;200;30.88;35965.13
1725962572.428;200;28.45;35051.40
1725962572.478;200;28.47;35056.54
1725962572.529;200;28.47;35056.54
1725962572.579;200;28.47;35056.54
1725962572.629;200;31.70;36275.60
1725962572.678;200;28.73;35154.93
1725962572.729;200;28.73;35154.93
1725962572.778;200;29.66;35506.80
1725962572.829;200;28.72;35151.13
1725962572.878;200;25.88;34081.20
1725962572.929;200;25.88;34081.20
1725962572.979;200;31.85;36332.80
1725962573.029;200;29.64;35498.73
1725962573.078;200;29.64;35498.73
1725962573.129;200;29.64;35498.73
1725962573.179;200;30.15;35692.40
1725962573.229;200;29.01;35262.27
1725962573.279;200;29.01;35262.27
1725962573.329;200;29.01;35262.27
1725962573.379;200;31.65;36258.40
1725962573.428;200;32.00;36389.00
1725962573.479;200;32.00;36389.00
1725962573.529;200;32.00;36389.00
1725962573.580;200;32.00;36389.00
1725962573.630;200;32.00;36389.00
1725962573.680;200;32.00;36389.00
1725962573.730;200;32.00;36389.00
1725962573.780;200;30.78;35927.20
1725962573.830;200;29.79;35553.60
1725962573.880;200;28.93;35232.07
1725962573.930;200;28.93;35232.07
1725962573.980;200;31.81;36316.67
1725962574.030;200;31.48;36193.46
1725962574.080;200;31.48;36193.46
1725962574.130;200;31.48;36193.46
1725962574.181;200;32.00;36389.00
1725962574.230;200;30.08;35666.07
1725962574.281;200;30.08;35666.07
1725962574.331;200;30.08;35666.07
1725962574.380;200;29.55;35465.87
1725962574.431;200;28.50;35070.33
1725962574.480;200;31.20;36088.87
1725962574.531;200;31.20;36088.87
1725962574.581;200;31.57;36227.00
1725962574.632;200;29.19;35329.00
1725962574.682;200;28.90;35219.07
1725962574.731;200;28.90;35219.07
1725962574.781;200;28.90;35219.07
1725962574.832;200;27.71;34769.13
1725962574.882;200;29.82;35568.33
1725962574.931;200;29.82;35568.33
1725962574.981;200;28.26;34980.07
1725962575.032;200;31.86;36337.46
1725962586.693;200;24.62;33606.87
1725962586.743;200;26.31;34242.54
1725962586.793;200;26.31;34242.54
1725962586.843;200;26.31;34242.54
1725962586.893;200;26.48;34306.60
1725962586.943;200;29.11;35298.80
1725962586.993;200;29.11;35298.80
1725962587.043;200;26.69;34385.73
1725962587.096;200;31.98;36381.73
1725962587.143;200;31.98;36381.73
1725962587.193;200;31.98;36381.73
1725962587.243;200;30.66;35883.60
1725962587.293;200;26.98;34495.27
1725962587.343;200;26.98;34495.27
1725962587.393;200;26.98;34495.27
1725962587.443;200;28.06;34902.46
1725962587.493;200;28.52;35074.80
1725962587.543;200;28.52;35074.80
1725962587.593;200;28.52;35074.80
1725962587.643;200;31.01;36015.46
1725962587.694;200;31.05;36031.60
1725962587.744;200;31.05;36031.60
1725962587.794;200;31.05;36031.60
1725962587.844;200;31.46;36186.80
1725962587.893;200;31.88;36343.07
1725962587.944;200;31.88;36343.07
1725962587.994;200;31.88;36343.07
1725962588.044;200;31.63;36248.54
1725962588.093;200;31.17;36077.33
1725962588.145;200;31.17;36077.33
1725962588.195;200;29.97;35622.87
1725962588.245;200;26.80;34426.20
1725962588.295;200;26.80;34426.20
1725962588.345;200;26.80;34426.20
1725962588.394;200;26.44;34291.46
1725962588.445;200;25.91;34092.73
1725962588.494;200;25.91;34092.73
1725962588.546;200;24.95;33729.73
1725962588.596;200;29.82;35567.07
1725962588.645;200;29.82;35567.07
1725962588.696;200;29.82;35567.07
1725962588.749;200;29.36;35392.80
1725962588.796;200;31.72;36283.60
1725962588.846;200;31.72;36283.60
1725962588.896;200;31.72;36283.60
1725962588.946;200;31.27;36114.93
1725962588.996;200;32.00;36389.00
1725962589.046;200;32.00;36389.00
1725962589.096;200;32.00;36389.00
1725962589.146;200;32.00;36389.00
1725962589.197;200;25.78;34044.46
1725962589.248;200;25.78;34044.46
1725962589.298;200;25.78;34044.46
1725962589.348;200;31.16;36071.00
1725962589.398;200;28.96;35244.00
1725962589.449;200;28.96;35244.00
1725962589.498;200;28.96;35244.00
1725962589.549;200;27.48;34683.54
1725962589.599;200;28.31;34996.87
1725962589.649;200;28.31;34996.87
1725962589.700;200;28.31;34996.87
1725962589.750;200;29.62;35490.73
1725962589.799;200;29.08;35287.54
1725962589.850;200;29.08;35287.54
1725962589.899;200;29.08;35287.54
1725962589.949;200;24.19;33442.60
1725962590.000;200;28.04;34894.46
1725962590.050;200;28.04;34894.46
1725962590.101;200;28.04;34894.46
1725962590.151;200;32.00;36389.00
1725962590.201;200;32.00;36389.00
1725962590.251;200;32.00;36389.00
1725962590.301;200;32.00;36389.00
1725962590.351;200;29.72;35530.46
1725962590.401;200;31.99;36384.67
1725962590.451;200;31.99;36384.67
1725962590.501;200;31.99;36384.67
1725962590.551;200;30.04;35650.93
1725962590.600;200;28.14;34932.54
1725962590.651;200;28.14;34932.54
1725962590.700;200;28.14;34932.54
1725962590.751;200;31.89;36348.67
1725962590.801;200;28.18;34946.67
1725962590.850;200;28.18;34946.67
1725962590.900;200;29.13;35307.93
1725962590.951;200;28.73;35155.07
1725962591.000;200;28.73;35155.07
1725962591.050;200;28.73;35155.07
1725962591.102;200;29.26;35357.00
1725962591.153;200;27.89;34839.13
1725962591.203;200;27.89;34839.13
1725962591.253;200;27.89;34839.13
1725962591.303;200;28.19;34951.93
1725962591.353;200;27.84;34818.07
1725962591.403;200;27.84;34818.07
1725962591.453;200;27.84;34818.07
1725962591.503;200;30.99;36007.93
1725962591.554;200;32.00;36389.00
1725962591.604;200;30.06;35658.07
1725962591.654;200;30.06;35658.07
1725962591.704;200;30.06;35658.07
1725962591.754;200;29.07;35283.73
1725962591.804;200;25.64;33990.87
1725962603.417;200;25.61;33980.60
1725962603.468;200;25.30;33863.60
1725962603.518;200;25.30;33863.60
1725962603.568;200;25.30;33863.60
1725962603.618;200;27.25;34596.93
1725962603.668;200;32.00;36389.00
1725962603.718;200;32.00;36389.00
1725962603.768;200;32.00;36389.00
1725962603.819;200;32.00;36389.00
1725962603.869;200;32.00;36389.00
1725962603.918;200;32.00;36389.00
1725962603.969;200;29.09;35289.54
1725962604.019;200;31.12;36057.27
1725962604.069;200;31.12;36057.27
1725962604.120;200;31.12;36057.27
1725962604.170;200;32.00;36389.00
1725962604.220;200;32.00;36389.00
1725962604.270;200;32.00;36389.00
1725962604.320;200;31.96;36372.13
1725962604.370;200;29.76;35543.40
1725962604.420;200;29.84;35572.67
1725962604.470;200;29.84;35572.67
1725962604.520;200;32.00;36389.00
1725962604.571;200;27.54;34708.60
1725962604.620;200;27.54;34708.60
1725962604.670;200;27.54;34708.60
1725962604.722;200;24.44;33536.33
1725962604.771;200;32.00;36389.00
1725962604.821;200;32.00;36389.00
1725962604.872;200;32.00;36389.00
1725962604.921;200;32.00;36389.00
1725962604.972;200;32.00;36389.00
1725962605.022;200;32.00;36389.00
1725962605.072;200;32.00;36389.00
1725962605.122;200;32.00;36389.00
1725962605.171;200;30.93;35984.27
1725962605.221;200;30.93;35984.27
1725962605.271;200;30.93;35984.27
1725962605.322;200;32.00;36389.00
1725962605.371;200;29.42;35417.46
1725962605.422;200;29.42;35417.46
1725962605.472;200;29.42;35417.46
1725962605.522;200;32.00;36389.00
1725962605.571;200;27.06;34526.13
1725962605.621;200;27.06;34526.13
1725962605.671;200;27.06;34526.13
1725962605.723;200;27.06;34525.73
1725962605.773;200;30.30;35748.87
1725962605.823;200;29.35;35390.07
1725962605.873;200;29.35;35390.07
1725962605.923;200;31.82;36322.40
1725962605.974;200;29.67;35508.73
1725962606.024;200;29.28;35362.93
1725962606.074;200;29.28;35362.93
1725962606.124;200;32.00;36389.00
1725962606.175;200;27.50;34692.87
1725962606.224;200;28.00;34880.87
1725962606.275;200;28.00;34880.87
1725962606.324;200;31.38;36156.27
1725962606.375;200;29.39;35403.87
1725962606.424;200;29.39;35403.87
1725962606.475;200;29.39;35403.87
1725962606.525;200;29.82;35566.80
1725962606.575;200;25.59;33969.46
1725962606.625;200;25.59;33969.46
1725962606.675;200;25.59;33969.46
1725962606.724;200;32.00;36389.00
1725962606.775;200;26.71;34394.07
1725962606.824;200;26.71;34394.07
1725962606.875;200;26.71;34394.07
1725962606.925;200;32.00;36389.00
1725962606.975;200;32.00;36389.00
1725962607.025;200;32.00;36389.00
1725962607.074;200;32.00;36389.00
1725962607.126;200;25.90;34089.67
1725962607.176;200;25.90;34089.67
1725962607.227;200;25.90;34089.67
1725962607.277;200;32.00;36389.00
1725962607.326;200;31.76;36297.33
1725962607.377;200;31.76;36297.33
1725962607.426;200;31.76;36297.33
1725962607.477;200;26.82;34434.87
1725962607.527;200;26.94;34480.73
1725962607.577;200;26.94;34480.73
1725962607.627;200;24.26;33471.40
1725962607.677;200;25.06;33772.20
1725962607.727;200;32.00;36389.00
1725962607.777;200;32.00;36389.00
1725962607.827;200;32.00;36389.00
1725962607.877;200;31.89;36347.20
1725962607.927;200;30.16;35693.60
1725962607.977;200;30.16;35693.60
1725962608.027;200;31.02;36019.07
1725962608.077;200;30.60;35859.46
1725962608.128;200;25.65;33992.40
1725962608.178;200;25.65;33992.40
1725962608.229;200;25.65;33992.40
1725962608.279;200;26.46;34299.73
1725962608.329;200;26.36;34261.73
1725962608.379;200;26.36;34261.73
1725962608.429;200;26.36;34261.73
1725962608.479;200;26.36;34261.73
1725962608.529;200;31.57;36228.40
1725962608.579;200;26.72;34398.13
