UnixTimestamp;Microseconds;MilliAmpere;BaseValue
1738585604.754;77;20.00;38873.60
1738585604.800;77;20.00;38873.60
1738585604.850;77;20.00;38873.60
1738585604.901;84;20.00;44486.87
1738585604.952;84;20.00;44486.87
1738585605.003;84;20.00;44486.87
1738585605.053;87;20.00;47140.40
1738585605.103;87;20.00;47140.40
1738585605.153;87;20.00;47140.40
1738585605.203;80;20.00;41636.80
1738585605.253;80;20.00;41636.80
1738585605.303;80;20.00;41636.80
1738585605.353;88;20.00;47450.13
1738585605.402;88;20.00;47450.13
1738585605.453;88;20.00;47450.13
1738585605.503;93;20.00;51541.20
1738585605.553;93;20.00;51541.20
1738585605.603;81;20.00;41946.40
1738585605.659;90;20.00;49326.40
1738585605.706;90;20.00;49326.40
1738585605.756;90;20.00;49326.40
1738585605.806;79;20.00;40723.60
1738585605.856;73;20.00;36180.00
1738585605.906;73;20.00;36180.00
1738585605.956;80;20.00;41379.87
1738585606.006;84;20.00;44553.33
1738585606.056;84;20.00;44553.33
1738585606.106;76;20.00;38203.60
1738585606.156;73;20.00;36413.20
1738585606.206;73;20.00;36413.20
1738585606.256;73;20.00;36413.20
1738585606.306;74;20.00;36821.80
1738585606.357;74;20.00;36821.80
1738585606.407;74;20.00;36821.80
1738585606.457;80;20.00;41587.60
1738585606.506;80;20.00;41587.60
1738585606.556;80;20.00;41587.60
1738585606.607;85;20.00;45025.80
1738585606.656;84;20.00;44727.33
1738585606.707;84;20.00;44727.33
1738585606.756;80;20.00;41436.54
1738585606.806;89;20.00;48530.67
1738585606.857;89;20.00;48530.67
1738585606.907;89;20.00;48530.67
1738585606.958;79;20.00;40358.60
1738585607.007;79;20.00;40358.60
1738585607.057;79;20.00;40358.60
1738585607.107;90;20.00;49309.33
1738585607.159;80;20.00;41280.93
1738585607.208;80;20.00;41280.93
1738585607.259;84;20.00;44234.13
1738585607.309;76;20.00;38349.60
1738585607.359;76;20.00;38349.60
1738585607.410;80;20.00;41821.73
1738585607.459;78;20.00;39776.67
1738585607.509;78;20.00;39776.67
1738585607.559;91;20.00;49806.67
1738585607.609;81;20.00;42549.60
1738585607.660;81;20.00;42549.60
1738585607.710;81;20.00;42549.60
1738585607.760;81;20.00;42338.40
1738585607.810;81;20.00;42338.40
1738585607.860;81;20.00;42338.40
1738585607.910;84;20.00;44822.13
1738585607.961;78;20.00;39919.73
1738585608.011;78;20.00;39919.73
1738585608.061;89;20.00;48064.54
1738585608.111;94;20.00;51966.93
1738585608.162;94;20.00;51966.93
1738585608.212;88;20.00;47501.33
1738585608.261;74;20.00;37204.60
1738585608.312;74;20.00;37204.60
1738585608.362;76;20.00;38511.54
1738585608.412;92;20.00;50279.20
1738585608.461;92;20.00;50279.20
1738585608.512;86;20.00;45850.93
1738585608.561;91;20.00;49530.33
1738585608.611;91;20.00;49530.33
1738585608.662;91;20.00;49530.33
1738585618.352;80;20.00;41433.73
1738585618.403;80;20.00;41433.73
1738585618.453;80;20.00;41433.73
1738585618.503;83;20.00;43701.07
1738585618.552;83;20.00;43701.07
1738585618.604;83;20.00;43701.07
1738585618.654;87;20.00;46535.87
1738585618.704;83;20.00;43463.46
1738585618.754;83;20.00;43463.46
1738585618.804;78;20.00;40239.46
1738585618.854;77;20.00;39007.73
1738585618.905;77;20.00;39007.73
1738585618.954;81;20.00;42045.87
1738585619.004;81;20.00;42045.87
1738585619.054;81;20.00;42045.87
1738585619.104;75;20.00;37859.46
1738585619.154;75;20.00;37859.46
1738585619.204;75;20.00;37859.46
1738585619.254;78;20.00;39833.60
1738585619.305;78;20.00;39833.60
1738585619.354;78;20.00;39833.60
1738585619.404;77;20.00;39431.20
1738585619.455;77;20.00;39431.20
1738585619.504;77;20.00;39431.20
1738585619.555;77;20.00;39141.00
1738585619.605;92;20.00;50875.20
1738585619.655;92;20.00;50875.20
1738585619.705;87;20.00;46767.46
1738585619.755;80;20.00;41706.67
1738585619.805;87;20.00;46774.93
1738585619.855;87;20.00;46774.93
1738585619.905;80;20.00;41759.60
1738585619.955;88;20.00;47616.46
1738585620.005;88;20.00;47616.46
1738585620.055;88;20.00;47616.46
1738585620.106;87;20.00;47084.27
1738585620.155;87;20.00;47084.27
1738585620.205;87;20.00;47084.27
1738585620.255;77;20.00;39522.67
1738585620.305;78;20.00;40239.73
1738585620.355;78;20.00;40239.73
1738585620.405;75;20.00;37965.46
1738585620.455;78;20.00;40128.60
1738585620.505;78;20.00;40128.60
1738585620.557;78;20.00;40128.60
1738585620.606;88;20.00;47478.93
1738585620.655;76;20.00;38119.20
1738585620.706;76;20.00;38119.20
1738585620.757;76;20.00;38119.20
1738585620.807;85;20.00;45204.00
1738585620.857;85;20.00;45204.00
1738585620.907;85;20.00;45204.00
1738585620.957;87;20.00;46935.27
1738585621.008;72;20.00;35136.40
1738585621.059;72;20.00;35136.40
1738585621.108;76;20.00;38256.00
1738585621.159;78;20.00;39765.00
1738585621.209;78;20.00;39765.00
1738585621.259;78;20.00;39765.00
1738585621.308;86;20.00;46179.33
1738585621.359;87;20.00;46482.40
1738585621.408;87;20.00;46482.40
1738585621.459;87;20.00;46482.40
1738585621.508;84;20.00;44798.67
1738585621.559;86;20.00;45958.93
1738585621.608;86;20.00;45958.93
1738585621.660;80;20.00;41260.93
1738585621.710;83;20.00;43609.33
1738585621.760;83;20.00;43609.33
1738585621.810;83;20.00;43598.60
1738585621.860;84;20.00;44854.93
1738585621.911;84;20.00;44854.93
1738585621.961;84;20.00;44854.93
1738585622.011;89;20.00;48254.00
1738585622.062;89;20.00;48254.00
1738585622.112;86;20.00;46145.27
1738585622.162;83;20.00;43513.87
1738585622.213;83;20.00;43513.87
1738585622.263;83;20.00;43513.87
1738585632.084;80;20.00;41525.07
1738585632.134;80;20.00;41525.07
1738585632.185;80;20.00;41525.07
1738585632.235;81;20.00;42385.87
1738585632.284;81;20.00;42385.87
1738585632.335;81;20.00;42385.87
1738585632.384;78;20.00;39664.80
1738585632.435;77;20.00;39342.27
1738585632.485;77;20.00;39342.27
1738585632.535;85;20.00;45479.73
1738585632.584;73;20.00;36297.87
1738585632.635;73;20.00;36297.87
1738585632.685;73;20.00;36297.87
1738585632.735;86;20.00;46374.27
1738585632.785;93;20.00;51357.13
1738585632.835;93;20.00;51357.13
1738585632.884;93;20.00;51357.13
1738585632.935;78;20.00;40150.33
1738585632.986;78;20.00;40150.33
1738585633.036;78;20.00;39995.27
1738585633.085;90;20.00;48841.60
1738585633.135;90;20.00;48841.60
1738585633.185;90;20.00;48841.60
1738585633.236;78;20.00;39953.60
1738585633.285;78;20.00;39953.60
1738585633.336;78;20.00;39953.60
1738585633.385;78;20.00;39940.80
1738585633.435;83;20.00;44016.27
1738585633.485;83;20.00;44016.27
1738585633.536;82;20.00;43197.40
1738585633.585;85;20.00;45554.00
1738585633.635;85;20.00;45554.00
1738585633.686;85;20.00;45554.00
1738585633.736;87;20.00;46431.46
1738585633.785;85;20.00;45407.33
1738585633.835;85;20.00;45407.33
1738585633.885;85;20.00;45407.33
1738585633.937;83;20.00;43580.80
1738585633.987;84;20.00;44390.13
1738585634.036;84;20.00;44390.13
1738585634.086;84;20.00;44390.13
1738585634.136;83;20.00;43615.13
1738585634.187;83;20.00;43615.13
1738585634.237;83;20.00;43615.13
1738585634.287;88;20.00;47894.00
1738585634.337;88;20.00;47894.00
1738585634.388;88;20.00;47894.00
1738585634.437;93;20.00;51386.67
1738585634.487;87;20.00;46641.07
1738585634.537;87;20.00;46641.07
1738585634.587;87;20.00;46641.07
1738585634.637;90;20.00;48785.60
1738585634.688;90;20.00;48785.60
1738585634.738;90;20.00;48785.60
1738585634.789;73;20.00;36536.00
1738585634.840;73;20.00;36536.00
1738585634.890;73;20.00;36536.00
1738585634.940;86;20.00;45747.27
1738585634.989;85;20.00;45539.73
1738585635.039;85;20.00;45539.73
1738585635.091;83;20.00;43715.20
1738585635.141;90;20.00;48879.60
1738585635.191;90;20.00;48879.60
1738585635.242;90;20.00;48879.60
1738585635.292;82;20.00;42785.33
1738585635.341;82;20.00;42785.33
1738585635.392;82;20.00;42785.33
1738585635.442;89;20.00;48507.40
1738585635.492;78;20.00;40059.20
1738585635.542;78;20.00;40059.20
1738585635.591;90;20.00;48849.07
1738585635.642;75;20.00;37726.33
1738585635.692;75;20.00;37726.33
1738585635.741;97;20.00;54060.80
1738585635.792;89;20.00;48248.46
1738585635.843;89;20.00;48248.46
1738585635.892;89;20.00;48248.46
1738585635.942;94;20.00;51826.00
1738585635.994;94;20.00;51826.00
1738585636.044;94;20.00;51826.00
1738585636.094;81;20.00;42504.80
1738585636.144;91;20.00;50154.67
1738585636.194;91;20.00;50154.67
1738585636.244;90;20.00;48832.00
1738585636.294;91;20.00;50041.33
1738585776.456;350;10.15;39073.33
1738585776.506;350;10.15;39073.33
1738585776.557;350;10.05;38496.67
1738585776.606;350;11.41;46689.54
1738585776.658;350;11.41;46689.54
1738585776.707;350;11.41;46689.54
1738585776.757;350;10.80;43027.20
1738585776.808;350;10.80;43027.20
1738585776.857;350;10.80;43027.20
1738585776.908;350;10.08;38639.73
1738585776.958;350;10.08;38639.73
1738585777.008;350;10.08;38639.73
1738585777.058;350;10.75;42714.40
1738585777.108;350;9.92;37712.13
1738585777.158;350;9.92;37712.13
1738585777.208;350;10.87;43403.20
1738585777.258;350;10.59;41745.46
1738585777.308;350;10.59;41745.46
1738585777.359;350;10.59;41745.46
1738585777.410;350;10.53;41371.07
1738585777.464;350;10.20;39377.20
1738585777.510;350;10.13;38943.33
1738585777.560;350;10.13;38943.33
1738585777.612;350;10.60;41772.73
1738585777.661;350;11.01;44248.00
1738585777.712;350;11.01;44248.00
1738585777.762;350;11.01;44248.00
1738585777.812;350;10.29;39919.27
1738585777.862;350;10.49;41158.46
1738585777.912;350;10.49;41158.46
1738585777.963;350;10.49;41158.46
1738585778.012;350;11.32;46112.67
1738585778.062;350;11.32;46112.67
1738585778.113;350;11.32;46112.67
1738585778.162;350;10.51;41231.80
1738585778.213;350;10.81;43030.00
1738585778.262;350;10.81;43030.00
1738585778.313;350;10.81;43030.00
1738585778.363;350;11.05;44515.13
1738585778.413;350;11.16;45138.60
1738585778.462;350;11.16;45138.60
1738585778.512;350;10.18;39258.46
1738585778.563;350;10.99;44118.93
1738585778.614;350;10.99;44118.93
1738585778.664;350;10.99;44118.93
1738585778.715;350;11.45;46911.73
1738585778.765;350;11.45;46911.73
1738585778.814;350;11.45;46911.73
1738585778.864;350;11.45;46911.73
1738585778.914;350;10.37;40439.27
1738585778.964;350;10.63;42001.67
1738585779.014;350;10.63;42001.67
1738585779.064;350;10.63;42001.67
1738585779.115;350;9.82;37119.20
1738585779.164;350;9.82;37119.20
1738585779.214;350;9.82;37119.20
1738585779.265;350;10.12;38895.60
1738585779.314;350;10.91;43662.67
1738585779.364;350;10.91;43662.67
1738585779.414;350;11.03;44366.40
1738585779.465;350;10.13;38955.93
1738585779.515;350;10.13;38955.93
1738585779.566;350;10.13;38955.93
1738585779.615;350;10.71;42457.60
1738585779.666;350;10.71;42457.60
1738585779.715;350;10.71;42457.60
1738585779.767;350;10.42;40704.73
1738585779.817;350;10.52;41286.93
1738585779.867;350;10.52;41286.93
1738585779.917;350;10.52;41286.93
1738585779.966;350;10.67;42236.80
1738585780.017;350;10.67;42236.80
1738585780.067;350;10.67;42236.80
1738585780.117;350;10.29;39940.80
1738585780.167;350;10.95;43917.07
1738585780.217;350;10.95;43917.07
1738585780.267;350;10.95;43917.07
1738585780.318;350;10.40;40567.20
1738585780.368;350;10.40;40567.20
1738585780.418;350;10.40;40567.20
1738585780.468;350;9.83;37160.67
1738585780.518;350;9.83;37160.67
1738585780.567;350;9.83;37160.67
1738585780.617;350;11.01;44285.46
1738585780.668;350;10.79;42920.27
1738585780.718;350;10.79;42920.27
1738585780.768;350;10.79;42920.27
1738585780.818;350;9.93;37769.80
1738585791.251;350;11.03;44352.67
1738585791.300;350;10.29;39956.27
1738585791.351;350;10.29;39956.27
1738585791.401;350;10.27;39809.87
1738585791.452;350;10.76;42754.40
1738585791.501;350;10.76;42754.40
1738585791.552;350;11.42;46730.93
1738585791.602;350;11.77;48843.46
1738585791.652;350;11.77;48843.46
1738585791.702;350;11.02;44340.27
1738585791.752;350;11.51;47250.13
1738585791.803;350;11.51;47250.13
1738585791.853;350;11.51;47250.13
1738585791.902;350;11.09;44751.67
1738585791.952;350;10.17;39224.00
1738585792.002;350;10.17;39224.00
1738585792.053;350;10.42;40728.00
1738585792.102;350;10.56;41555.87
1738585792.153;350;10.56;41555.87
1738585792.203;350;11.19;45323.13
1738585792.253;350;10.96;43935.33
1738585792.302;350;10.96;43935.33
1738585792.353;350;10.96;43935.33
1738585792.403;350;11.08;44664.27
1738585792.453;350;10.24;39641.07
1738585792.502;350;11.31;46056.87
1738585792.554;350;11.31;46056.87
1738585792.604;350;11.05;44521.60
1738585792.654;350;10.05;38506.93
1738585792.704;350;11.76;48793.80
1738585792.755;350;11.76;48793.80
1738585792.805;350;10.20;39390.67
1738585792.856;350;10.36;40355.87
1738585792.905;350;10.36;40355.87
1738585792.956;350;10.36;40355.87
1738585793.006;350;11.13;44956.80
1738585793.056;350;11.44;46874.67
1738585793.105;350;11.44;46874.67
1738585793.205;350;11.45;46938.27
1738585793.256;350;11.45;46938.27
1738585793.305;350;10.35;40282.67
1738585793.356;350;10.87;43427.20
1738585793.405;350;10.87;43427.20
1738585793.457;350;10.87;43427.20
1738585793.507;350;9.69;36290.40
1738585793.557;350;11.69;48328.60
1738585793.608;350;11.64;48080.54
1738585793.658;350;11.64;48080.54
1738585793.708;350;10.82;43102.13
1738585793.758;350;11.40;46590.93
1738585793.808;350;11.40;46590.93
1738585793.857;350;11.40;46590.93
1738585793.908;350;9.91;37625.20
1738585793.958;350;9.91;37625.20
1738585794.007;350;9.91;37625.20
1738585794.058;350;10.66;42173.87
1738585794.108;350;11.13;44974.13
1738585794.158;350;11.13;44974.13
1738585794.208;350;11.00;44191.93
1738585794.258;350;10.80;42988.80
1738585794.308;350;10.80;42988.80
1738585794.358;350;10.13;38957.87
1738585794.408;350;10.30;39968.80
1738585794.458;350;10.30;39968.80
1738585794.508;350;9.72;36524.80
1738585794.559;350;12.29;51951.87
1738585794.608;350;12.23;51625.46
1738585794.658;350;12.23;51625.46
1738585794.708;350;12.23;51625.46
1738585794.758;350;10.20;39362.93
1738585794.808;350;10.75;42674.67
1738585794.859;350;10.75;42674.67
1738585794.909;350;10.64;42055.73
1738585794.959;350;11.19;45332.46
1738585795.009;350;11.19;45332.46
1738585795.059;350;11.19;45332.46
1738585795.109;350;10.11;38857.20
1738585795.160;350;11.34;46223.54
1738585795.210;350;11.34;46223.54
1738585795.259;350;11.34;46223.54
1738585795.310;350;11.48;47068.80
1738585795.359;350;11.30;46027.20
1738585795.410;350;11.30;46027.20
1738585795.460;350;11.01;44267.07
1738585805.775;350;10.47;40992.54
1738585805.826;350;10.47;40992.54
1738585805.875;350;10.47;40992.54
1738585805.925;350;9.59;35740.20
1738585805.975;350;9.59;35740.20
1738585806.025;350;9.59;35740.20
1738585806.075;350;10.94;43840.80
1738585806.126;350;10.37;40411.93
1738585806.176;350;10.37;40411.93
1738585806.225;350;10.37;40411.93
1738585806.276;350;11.45;46923.93
1738585806.326;350;10.53;41386.54
1738585806.376;350;10.53;41386.54
1738585806.426;350;10.53;41386.54
1738585806.477;350;10.52;41294.93
1738585806.527;350;11.38;46468.00
1738585806.576;350;11.38;46468.00
1738585806.626;350;10.15;39088.00
1738585806.677;350;9.86;37353.27
1738585806.727;350;9.86;37353.27
1738585806.776;350;9.86;37353.27
1738585806.827;350;11.02;44345.67
1738585806.877;350;11.14;45062.73
1738585806.927;350;11.14;45062.73
1738585806.977;350;11.14;45062.73
1738585807.027;350;10.91;43670.80
1738585807.076;350;10.91;43670.80
1738585807.128;350;10.91;43670.80
1738585807.181;350;11.33;46214.93
1738585807.228;350;10.68;42270.93
1738585807.279;350;10.68;42270.93
1738585807.328;350;10.89;43562.67
1738585807.378;350;10.75;42685.60
1738585807.429;350;10.75;42685.60
1738585807.480;350;10.75;42685.60
1738585807.529;350;10.64;42035.46
1738585807.580;350;10.64;42035.46
1738585807.630;350;10.64;42035.46
1738585807.680;350;12.29;51971.73
1738585807.730;350;12.29;51971.73
1738585807.780;350;12.29;51971.73
1738585807.830;350;11.92;49757.33
1738585807.881;350;11.92;49757.33
1738585807.930;350;11.92;49757.33
1738585807.981;350;10.62;41942.40
1738585808.031;350;10.62;41942.40
1738585808.082;350;10.62;41942.40
1738585808.131;350;9.95;37874.73
1738585808.181;350;10.94;43824.80
1738585808.232;350;10.94;43824.80
1738585808.282;350;10.94;43824.80
1738585808.332;350;11.40;46609.20
1738585808.382;350;10.07;38628.40
1738585808.432;350;10.07;38628.40
1738585808.482;350;10.07;38628.40
1738585808.532;350;10.51;41237.07
1738585808.582;350;9.65;36103.54
1738585808.633;350;9.65;36103.54
1738585808.682;350;9.65;36103.54
1738585808.732;350;10.14;39004.67
1738585808.782;350;10.14;39004.67
1738585808.832;350;10.14;39004.67
1738585808.882;350;11.42;46716.00
1738585808.932;350;11.78;48909.13
1738585808.983;350;11.78;48909.13
1738585809.032;350;10.56;41573.73
1738585809.083;350;10.89;43537.20
1738585809.133;350;10.89;43537.20
1738585809.184;350;10.89;43537.20
1738585809.233;350;9.88;37487.60
1738585809.284;350;10.52;41325.87
1738585809.334;350;11.82;49119.73
1738585809.384;350;11.82;49119.73
1738585809.434;350;10.91;43686.54
1738585809.484;350;11.56;47600.13
1738585809.534;350;11.56;47600.13
1738585809.584;350;11.56;47600.13
1738585809.634;350;10.23;39562.13
1738585809.685;350;10.01;38215.87
1738585809.735;350;10.01;38215.87
1738585809.785;350;10.01;38215.87
1738585809.835;350;9.74;36630.73
1738585809.886;350;9.74;36630.73
1738585809.936;350;9.74;36630.73
1738585809.986;350;9.74;36630.73
1738585810.036;350;11.70;48399.67
1738585810.087;350;11.70;48399.67
1738585810.136;350;11.70;48399.67
1738585810.186;350;9.84;37237.33
1738585946.303;200;10.30;40018.93
1738585946.353;200;11.17;45232.80
1738585946.404;200;11.17;45232.80
1738585946.454;200;11.17;45232.80
1738585946.505;200;10.37;40423.54
1738585946.555;200;11.53;47418.13
1738585946.604;200;11.53;47418.13
1738585946.654;200;11.53;47418.13
1738585946.705;200;10.56;41569.07
1738585946.754;200;10.90;43613.33
1738585946.804;200;10.90;43613.33
1738585946.855;200;10.90;43613.33
1738585946.905;200;10.58;41663.73
1738585946.955;200;10.58;41663.73
1738585947.005;200;10.58;41663.73
1738585947.055;200;10.00;38193.46
1738585947.105;200;11.09;44713.67
1738585947.155;200;11.09;44713.67
1738585947.205;200;11.09;44713.67
1738585947.255;200;11.37;46436.80
1738585947.306;200;10.77;42846.00
1738585947.356;200;10.77;42846.00
1738585947.406;200;10.70;42378.73
1738585947.457;200;11.37;46448.00
1738585947.507;200;11.37;46448.00
1738585947.557;200;11.37;46448.00
1738585947.606;200;10.32;40115.67
1738585947.656;200;10.26;39722.93
1738585947.708;200;10.26;39722.93
1738585947.757;200;10.26;39722.93
1738585947.807;200;10.83;43172.13
1738585947.857;200;10.83;43172.13
1738585947.907;200;10.83;43172.13
1738585947.957;200;10.83;43172.13
1738585948.007;200;11.02;44347.07
1738585948.057;200;11.02;44347.07
1738585948.108;200;11.02;44347.07
1738585948.159;200;10.65;42074.13
1738585948.209;200;10.20;39407.73
1738585948.258;200;10.20;39407.73
1738585948.309;200;10.20;39407.73
1738585948.359;200;11.16;45193.87
1738585948.409;200;11.16;45193.87
1738585948.458;200;11.16;45193.87
1738585948.509;200;11.67;48207.20
1738585948.559;200;10.30;39960.13
1738585948.609;200;10.30;39960.13
1738585948.659;200;10.30;39960.13
1738585948.709;200;10.15;39072.00
1738585948.759;200;10.43;40776.00
1738585948.810;200;10.43;40776.00
1738585948.859;200;10.32;40093.00
1738585948.909;200;11.24;45650.60
1738585948.960;200;11.48;47063.46
1738585949.010;200;11.48;47063.46
1738585949.060;200;11.48;47063.46
1738585949.111;200;10.85;43273.80
1738585949.161;200;10.85;43273.80
1738585949.212;200;10.85;43273.80
1738585949.262;200;10.37;40434.60
1738585949.312;200;11.83;49179.46
1738585949.361;200;11.83;49179.46
1738585949.412;200;11.83;49179.46
1738585949.462;200;9.91;37667.20
1738585949.512;200;9.91;37667.20
1738585949.562;200;9.91;37667.20
1738585949.612;200;11.99;50172.46
1738585949.661;200;10.13;38976.54
1738585949.712;200;10.13;38976.54
1738585949.761;200;10.13;38976.54
1738585949.811;200;11.44;46859.33
1738585949.862;200;10.95;43920.73
1738585949.912;200;10.95;43920.73
1738585949.965;200;10.95;43920.73
1738585950.012;200;10.94;43830.00
1738585950.062;200;11.54;47468.27
1738585950.112;200;11.54;47468.27
1738585950.163;200;11.54;47468.27
1738585950.212;200;11.68;48311.60
1738585950.263;200;11.68;48311.60
1738585950.313;200;11.68;48311.60
1738585950.362;200;11.19;45329.33
1738585950.413;200;12.03;50420.73
1738585950.462;200;12.03;50420.73
1738585950.513;200;10.44;40810.54
1738585950.562;200;11.10;44826.93
1738585950.613;200;11.10;44826.93
1738585950.663;200;11.10;44826.93
1738585950.713;200;11.76;48789.60
1738585950.762;200;10.85;43300.27
1738585950.813;200;10.85;43300.27
1738585950.863;200;10.85;43300.27
1738585950.913;200;11.04;44430.93
1738585950.964;200;9.89;37506.40
1738585951.013;200;9.89;37506.40
1738585951.064;200;9.89;37506.40
1738585951.113;200;11.90;49635.93
1738585961.937;200;10.30;39983.80
1738585961.987;200;10.30;39983.80
1738585962.037;200;10.30;39983.80
1738585962.087;200;11.02;44309.07
1738585962.137;200;10.96;43958.13
1738585962.187;200;10.96;43958.13
1738585962.237;200;10.94;43850.54
1738585962.287;200;10.17;39178.40
1738585962.337;200;10.17;39178.40
1738585962.387;200;10.17;39178.40
1738585962.437;200;10.79;42921.46
1738585962.487;200;10.79;42921.46
1738585962.536;200;10.79;42921.46
1738585962.592;200;10.44;40818.54
1738585962.639;200;11.39;46569.46
1738585962.689;200;11.39;46569.46
1738585962.740;200;11.39;46569.46
1738585962.789;200;11.55;47514.13
1738585962.840;200;11.55;47514.13
1738585962.889;200;11.55;47514.13
1738585962.940;200;11.19;45352.13
1738585962.990;200;9.75;36678.67
1738585963.040;200;9.75;36678.67
1738585963.090;200;9.75;36678.67
1738585963.140;200;11.26;45779.73
1738585963.190;200;11.68;48270.13
1738585963.240;200;11.68;48270.13
1738585963.291;200;11.70;48420.67
1738585963.342;200;11.04;44454.93
1738585963.391;200;11.04;44454.93
1738585963.442;200;10.84;43230.80
1738585963.492;200;10.04;38400.54
1738585963.543;200;10.04;38400.54
1738585963.594;200;9.95;37872.80
1738585963.644;200;10.39;40503.20
1738585963.694;200;11.43;46769.46
1738585963.744;200;11.43;46769.46
1738585963.796;200;10.98;44104.00
1738585963.847;200;9.79;36915.07
1738585963.903;200;9.79;36915.07
1738585963.947;200;10.66;42161.27
1738585963.996;200;12.16;51196.54
1738585964.047;200;12.16;51196.54
1738585964.097;200;12.16;51196.54
1738585964.148;200;10.19;39342.93
1738585964.198;200;9.67;36177.87
1738585964.248;200;9.67;36177.87
1738585964.297;200;9.67;36191.40
1738585964.347;200;10.86;43365.87
1738585964.398;200;10.86;43365.87
1738585964.447;200;10.15;39079.54
1738585964.497;200;10.14;39024.13
1738585964.547;200;10.14;39024.13
1738585964.598;200;11.30;46026.27
1738585964.649;200;10.60;41777.73
1738585964.698;200;10.60;41777.73
1738585964.748;200;10.60;41777.73
1738585964.799;200;11.36;46347.20
1738585964.849;200;10.32;40087.13
1738585964.898;200;10.32;40087.13
1738585964.949;200;11.31;46046.93
1738585964.998;200;9.91;37612.87
1738585965.049;200;9.91;37612.87
1738585965.098;200;9.91;37612.87
1738585965.153;200;9.77;36799.13
1738585965.200;200;11.34;46273.07
1738585965.251;200;11.34;46273.07
1738585965.301;200;11.28;45862.40
1738585965.351;200;9.64;36007.67
1738585965.401;200;9.64;36007.67
1738585965.451;200;9.64;36007.67
1738585965.501;200;11.53;47366.00
1738585965.551;200;10.49;41152.80
1738585965.601;200;10.49;41152.80
1738585965.652;200;10.49;41152.80
1738585965.702;200;9.82;37076.87
1738585965.752;200;9.82;37076.87
1738585965.801;200;9.82;37076.87
1738585965.853;200;11.09;44735.46
1738585965.902;200;10.71;42469.20
1738585965.952;200;10.71;42469.20
1738585966.002;200;10.71;42469.20
1738585966.052;200;10.31;40030.93
1738585966.103;200;11.65;48083.60
1738585966.153;200;11.65;48083.60
1738585966.203;200;9.91;37634.93
1738585966.253;200;12.20;51401.07
1738585976.985;200;9.96;37970.40
1738585977.035;200;10.43;40758.93
1738585977.085;200;10.43;40758.93
1738585977.135;200;10.43;40758.93
1738585977.185;200;10.96;43980.27
1738585977.235;200;10.98;44080.20
1738585977.285;200;10.98;44080.20
1738585977.335;200;10.98;44080.20
1738585977.384;200;11.57;47621.54
1738585977.435;200;11.57;47621.54
1738585977.485;200;11.57;47621.54
1738585977.535;200;11.16;45158.07
1738585977.584;200;11.89;49564.46
1738585977.635;200;11.89;49564.46
1738585977.684;200;11.89;49564.46
1738585977.734;200;10.50;41220.67
1738585977.784;200;10.61;41870.73
1738585977.835;200;11.12;44898.20
1738585977.885;200;11.12;44898.20
1738585977.935;200;11.80;49027.60
1738585977.985;200;11.63;47982.20
1738585978.035;200;10.94;43820.27
1738585978.085;200;10.94;43820.27
1738585978.135;200;10.94;43820.27
1738585978.186;200;10.56;41576.33
1738585978.235;200;10.32;40096.54
1738585978.285;200;10.32;40096.54
1738585978.335;200;10.32;40096.54
1738585978.385;200;10.58;41696.54
1738585978.435;200;11.52;47328.54
1738585978.486;200;11.52;47328.54
1738585978.535;200;11.52;47328.54
1738585978.586;200;10.99;44160.40
1738585978.635;200;10.81;43080.13
1738585978.686;200;10.81;43080.13
1738585978.735;200;10.81;43080.13
1738585978.786;200;10.11;38869.73
1738585978.836;200;11.15;45120.27
1738585978.886;200;11.15;45120.27
1738585978.936;200;11.15;45120.27
1738585978.987;200;9.93;37744.54
1738585979.037;200;10.91;43675.73
1738585979.087;200;10.91;43675.73
1738585979.136;200;10.91;43675.73
1738585979.186;200;11.36;46347.20
1738585979.237;200;11.09;44715.20
1738585979.288;200;11.09;44715.20
1738585979.338;200;11.09;44715.20
1738585979.388;200;10.77;42820.67
1738585979.438;200;11.57;47607.07
1738585979.488;200;11.57;47607.07
1738585979.538;200;11.45;46910.73
1738585979.588;200;9.78;36864.00
1738585979.638;200;11.09;44727.13
1738585979.689;200;11.09;44727.13
1738585979.738;200;11.33;46169.07
1738585979.789;200;11.00;44189.40
1738585979.840;200;10.98;44068.54
1738585979.890;200;10.98;44068.54
1738585979.939;200;10.98;44068.54
1738585979.989;200;11.15;45100.54
1738585980.039;200;10.33;40182.80
1738585980.090;200;10.33;40182.80
1738585980.139;200;10.33;40182.80
1738585980.190;200;10.10;38788.00
1738585980.240;200;11.57;47658.07
1738585980.290;200;11.57;47658.07
1738585980.339;200;11.65;48106.73
1738585980.389;200;11.33;46212.00
1738585980.440;200;11.33;46212.00
1738585980.490;200;11.33;46212.00
1738585980.540;200;10.86;43346.93
1738585980.590;200;9.67;36213.73
1738585980.640;200;9.67;36213.73
1738585980.690;200;9.67;36213.73
1738585980.740;200;11.26;45752.80
1738585980.790;200;11.77;48823.13
1738585980.841;200;11.77;48823.13
1738585980.890;200;11.77;48823.13
1738585980.940;200;11.62;47947.27
1738585980.990;200;10.37;40422.13
1738585981.041;200;10.37;40422.13
1738585981.090;200;10.37;40422.13
1738585981.141;200;9.95;37873.20
1738585981.191;200;11.14;45019.20
1738585981.242;200;11.14;45019.20
1738585981.291;200;11.14;45019.20
1738585981.343;200;11.08;44689.20
1738585981.392;200;11.53;47383.46
1738585981.443;200;11.53;47383.46
1738585981.493;200;11.53;47383.46
1738585981.543;200;11.80;49020.54
1738585981.593;200;11.80;49020.54
1738585981.643;200;11.80;49020.54
1738585981.693;200;10.53;41347.46
1738586116.575;89;10.00;48016.80
1738586116.625;85;10.00;45195.20
1738586116.675;85;10.00;45195.20
1738586116.724;75;10.00;37595.73
1738586116.775;92;10.00;50586.54
1738586116.825;92;10.00;50586.54
1738586116.876;81;10.00;41900.87
1738586116.925;83;10.00;43877.33
1738586116.975;83;10.00;43877.33
1738586117.025;83;10.00;43877.33
1738586117.075;91;10.00;49646.40
1738586117.125;89;10.00;48610.60
1738586117.175;89;10.00;48610.60
1738586117.225;76;10.00;38536.13
1738586117.275;80;10.00;41301.40
1738586117.325;80;10.00;41301.40
1738586117.377;83;10.00;43455.13
1738586117.427;75;10.00;37534.40
1738586117.477;75;10.00;37534.40
1738586117.527;75;10.00;37534.40
1738586117.576;86;10.00;45864.54
1738586117.626;86;10.00;45864.54
1738586117.677;86;10.00;45864.54
1738586117.727;76;10.00;38688.80
1738586117.777;90;10.00;48842.67
1738586117.827;90;10.00;48842.67
1738586117.877;87;10.00;46539.73
1738586117.927;85;10.00;45362.13
1738586117.977;85;10.00;45362.13
1738586118.027;85;10.00;45362.13
1738586118.077;82;10.00;42867.46
1738586118.127;82;10.00;42867.46
1738586118.178;82;10.00;42867.46
1738586118.227;88;10.00;47530.54
1738586118.278;76;10.00;38499.33
1738586118.328;76;10.00;38499.33
1738586118.378;90;10.00;48863.67
1738586118.429;81;10.00;41967.27
1738586118.478;81;10.00;41967.27
1738586118.529;81;10.00;41967.27
1738586118.579;84;10.00;44201.54
1738586118.630;84;10.00;44201.54
1738586118.679;84;10.00;44201.54
1738586118.730;73;10.00;36537.87
1738586118.779;76;10.00;38358.93
1738586118.830;76;10.00;38358.93
1738586118.880;90;10.00;48746.13
1738586118.930;84;10.00;44701.27
1738586118.981;84;10.00;44701.27
1738586119.081;74;10.00;36689.80
1738586119.131;74;10.00;36689.80
1738586119.182;76;10.00;38818.54
1738586119.231;76;10.00;38818.54
1738586119.281;76;10.00;38818.54
1738586119.332;83;10.00;43549.87
1738586119.382;77;10.00;39079.00
1738586119.432;77;10.00;39079.00
1738586119.482;87;10.00;46842.13
1738586119.532;78;10.00;40290.80
1738586119.582;78;10.00;40290.80
1738586119.632;78;10.00;40290.80
1738586119.683;87;10.00;47008.00
1738586119.832;82;10.00;43156.07
1738586119.882;81;10.00;42260.13
1738586119.932;81;10.00;42260.13
1738586119.982;81;10.00;42260.13
1738586120.032;73;10.00;36200.67
1738586120.082;73;10.00;36200.67
1738586120.132;73;10.00;36200.67
1738586120.183;78;10.00;40227.60
1738586120.233;78;10.00;40227.60
1738586120.282;78;10.00;40227.60
1738586120.333;87;10.00;46543.87
1738586120.383;77;10.00;38978.54
1738586120.432;77;10.00;38978.54
1738586120.484;82;10.00;43329.46
1738586120.534;81;10.00;42275.87
1738586120.584;81;10.00;42275.87
1738586120.634;81;10.00;42275.87
1738586120.690;85;10.00;45189.60
1738586120.734;85;10.00;45025.33
1738586120.785;85;10.00;45025.33
1738586120.835;85;10.00;45025.33
1738586120.885;83;10.00;44097.60
1738586131.637;83;10.00;43908.93
1738586131.686;80;10.00;41457.60
1738586131.737;80;10.00;41457.60
1738586131.787;76;10.00;38574.40
1738586131.838;77;10.00;39557.20
1738586131.888;77;10.00;39557.20
1738586131.938;77;10.00;39557.20
1738586131.987;86;10.00;46161.87
1738586132.038;85;10.00;45369.87
1738586132.088;85;10.00;45369.87
1738586132.143;86;10.00;46216.93
1738586132.191;80;10.00;41458.60
1738586132.240;80;10.00;41458.60
1738586132.290;89;10.00;48301.87
1738586132.340;81;10.00;42135.13
1738586132.391;81;10.00;42135.13
1738586132.441;81;10.00;42135.13
1738586132.490;76;10.00;38482.40
1738586132.541;88;10.00;47390.54
1738586132.591;88;10.00;47390.54
1738586132.641;88;10.00;47390.54
1738586132.691;80;10.00;41774.93
1738586132.740;83;10.00;43416.13
1738586132.791;83;10.00;43416.13
1738586132.841;83;10.00;43416.13
1738586132.892;82;10.00;43188.73
1738586132.942;82;10.00;43188.73
1738586132.991;82;10.00;43188.73
1738586133.042;78;10.00;40085.27
1738586133.091;83;10.00;43384.13
1738586133.141;83;10.00;43384.13
1738586133.191;83;10.00;43971.87
1738586133.241;81;10.00;42475.87
1738586133.292;81;10.00;42475.87
1738586133.342;81;10.00;42475.87
1738586133.392;72;10.00;35745.20
1738586133.442;72;10.00;35745.20
1738586133.492;72;10.00;35745.20
1738586133.542;74;10.00;36893.54
1738586133.592;84;10.00;44371.73
1738586133.641;84;10.00;44371.73
1738586133.692;84;10.00;44371.73
1738586133.744;84;10.00;44371.73
1738586133.793;84;10.00;44225.87
1738586133.843;84;10.00;44225.87
1738586133.894;84;10.00;44225.87
1738586133.943;86;10.00;46213.60
1738586133.993;85;10.00;45623.46
1738586134.043;85;10.00;45623.46
1738586134.093;85;10.00;45623.46
1738586134.143;86;10.00;45920.00
1738586134.193;83;10.00;43674.13
1738586134.243;83;10.00;43674.13
1738586134.294;83;10.00;43674.13
1738586134.393;74;10.00;36820.54
1738586134.444;74;10.00;36820.54
1738586134.497;74;10.00;36820.54
1738586134.545;85;10.00;45204.27
1738586134.594;80;10.00;41731.46
1738586134.644;80;10.00;41731.46
1738586134.693;84;10.00;44140.27
1738586134.744;85;10.00;45158.27
1738586134.795;85;10.00;45158.27
1738586134.846;85;10.00;45158.27
1738586134.896;85;10.00;45451.60
1738586134.946;79;10.00;40984.80
1738586134.996;79;10.00;40984.80
1738586135.046;79;10.00;40984.80
1738586135.097;82;10.00;43108.00
1738586135.147;76;10.00;38654.13
1738586135.197;76;10.00;38654.13
1738586135.247;76;10.00;38654.13
1738586135.297;83;10.00;43454.87
1738586135.347;84;10.00;44132.46
1738586135.396;84;10.00;44132.46
1738586135.447;80;10.00;41168.00
1738586135.497;82;10.00;42744.80
1738586135.548;82;10.00;42744.80
1738586135.598;84;10.00;44817.07
1738586135.649;82;10.00;42821.73
1738586135.698;82;10.00;42821.73
1738586135.749;82;10.00;42821.73
1738586135.799;85;10.00;45425.80
1738586135.849;85;10.00;45425.80
1738586135.899;85;10.00;45425.80
1738586135.950;76;10.00;38113.46
1738586145.812;76;10.00;38096.67
1738586145.862;76;10.00;38096.67
1738586145.912;76;10.00;38096.67
1738586145.963;84;10.00;44258.80
1738586146.013;84;10.00;44258.80
1738586146.063;84;10.00;44258.80
1738586146.112;88;10.00;47558.73
1738586146.163;88;10.00;47558.73
1738586146.213;88;10.00;47558.73
1738586146.263;80;10.00;41529.60
1738586146.313;80;10.00;41529.60
1738586146.363;80;10.00;41529.60
1738586146.413;89;10.00;48477.93
1738586146.464;89;10.00;48477.93
1738586146.513;89;10.00;48477.93
1738586146.563;89;10.00;48540.54
1738586146.613;89;10.00;48540.54
1738586146.663;89;10.00;48540.54
1738586146.715;74;10.00;36923.73
1738586146.765;74;10.00;36923.73
1738586146.815;74;10.00;36923.73
1738586146.865;80;10.00;41287.27
1738586146.914;80;10.00;41287.27
1738586146.965;79;10.00;40804.00
1738586147.015;90;10.00;48832.87
1738586147.065;90;10.00;48832.87
1738586147.115;90;10.00;48832.87
1738586147.165;75;10.00;37441.93
1738586147.215;75;10.00;37441.93
1738586147.265;75;10.00;37441.93
1738586147.315;84;10.00;44643.73
1738586147.365;82;10.00;42650.13
1738586147.415;82;10.00;42650.13
1738586147.466;82;10.00;42650.13
1738586147.516;86;10.00;45646.67
1738586147.566;87;10.00;46469.13
1738586147.616;87;10.00;46469.13
1738586147.666;87;10.00;46469.13
1738586147.716;83;10.00;43508.27
1738586147.766;84;10.00;44554.67
1738586147.816;84;10.00;44554.67
1738586147.866;84;10.00;44554.67
1738586147.915;87;10.00;46714.13
1738586147.966;87;10.00;46714.13
1738586148.016;87;10.00;46714.13
1738586148.066;82;10.00;43309.87
1738586148.116;82;10.00;43309.87
1738586148.166;82;10.00;43309.87
1738586148.216;92;10.00;50484.67
1738586148.266;92;10.00;50484.67
1738586148.317;92;10.00;50484.67
1738586148.367;89;10.00;48519.20
1738586148.417;89;10.00;48074.93
1738586148.467;89;10.00;48074.93
1738586148.517;85;10.00;45319.27
1738586148.567;76;10.00;38545.93
1738586148.617;76;10.00;38545.93
1738586148.667;76;10.00;38545.93
1738586148.718;89;10.00;47991.73
1738586148.767;89;10.00;47991.73
1738586148.817;89;10.00;47991.73
1738586148.867;82;10.00;42902.93
1738586148.918;82;10.00;42902.93
1738586148.967;82;10.00;42902.93
1738586149.018;77;10.00;39238.60
1738586149.068;77;10.00;39238.60
1738586149.118;77;10.00;39238.60
1738586149.168;79;10.00;40626.13
1738586149.218;86;10.00;46015.73
1738586149.268;86;10.00;46015.73
1738586149.318;81;10.00;42281.46
1738586149.518;82;10.00;42760.46
1738586149.568;82;10.00;42760.46
1738586149.618;82;10.00;42760.46
1738586149.668;87;10.00;46482.93
1738586149.718;87;10.00;46482.93
1738586149.768;87;10.00;46482.93
1738586149.819;83;10.00;43903.73
1738586149.869;83;10.00;43903.73
1738586149.919;83;10.00;43903.73
1738586149.968;83;10.00;43903.73
1738586150.019;80;10.00;41832.00
1738586286.162;83;40.00;43739.27
1738586286.213;86;40.00;46200.87
1738586286.262;86;40.00;46200.87
1738586286.313;86;40.00;46200.87
1738586286.363;73;40.00;36216.80
1738586286.414;87;40.00;46779.46
1738586286.464;87;40.00;46779.46
1738586286.514;87;40.00;46779.46
1738586286.563;80;40.00;41594.67
1738586286.613;87;40.00;46795.73
1738586286.664;87;40.00;46795.73
1738586286.715;87;40.00;46795.73
1738586286.765;90;40.00;49251.46
1738586286.816;90;40.00;49251.46
1738586286.866;90;40.00;49251.46
1738586286.915;75;40.00;38020.80
1738586287.066;79;40.00;40363.07
1738586287.116;81;40.00;42521.60
1738586287.166;81;40.00;42521.60
1738586287.216;86;40.00;45880.27
1738586287.266;73;40.00;36426.46
1738586287.317;73;40.00;36426.46
1738586287.367;73;40.00;36426.46
1738586287.417;93;40.00;50966.93
1738586287.466;93;40.00;50966.93
1738586287.517;93;40.00;50966.93
1738586287.567;80;40.00;41536.00
1738586287.617;80;40.00;41536.00
1738586287.667;80;40.00;41536.00
1738586287.718;80;40.00;41536.00
1738586287.767;73;40.00;36463.20
1738586287.817;73;40.00;36463.20
1738586287.867;73;40.00;36463.20
1738586287.917;73;40.00;36463.20
1738586287.967;77;40.00;39199.07
1738586288.017;77;40.00;39199.07
1738586288.067;77;40.00;39199.07
1738586288.118;72;40.00;35476.27
1738586288.168;75;40.00;37911.73
1738586288.218;75;40.00;37911.73
1738586288.268;73;40.00;36431.73
1738586288.468;87;40.00;46604.67
1738586288.518;87;40.00;46604.67
1738586288.568;87;40.00;46604.67
1738586288.618;87;40.00;46604.67
1738586288.668;72;40.00;35144.80
1738586288.718;73;40.00;36224.87
1738586288.770;73;40.00;36224.87
1738586288.819;73;40.00;36224.87
1738586288.920;85;40.00;45015.00
1738586288.970;85;40.00;45015.00
1738586289.020;85;40.00;45015.00
1738586289.070;92;40.00;50780.73
1738586289.120;88;40.00;47821.33
1738586289.171;88;40.00;47821.33
1738586289.221;88;40.00;47821.33
1738586289.271;87;40.00;47117.87
1738586289.322;87;40.00;46824.00
1738586289.372;87;40.00;46824.00
1738586289.422;87;40.00;46824.00
1738586289.472;83;40.00;43960.80
1738586289.522;90;40.00;49288.00
1738586289.572;90;40.00;49288.00
1738586289.623;90;40.00;49288.00
1738586289.673;76;40.00;38358.67
1738586289.722;76;40.00;38814.54
1738586289.772;76;40.00;38814.54
1738586289.822;76;40.00;38814.54
1738586289.873;80;40.00;41845.46
1738586289.923;81;40.00;42114.00
1738586289.975;81;40.00;42114.00
1738586290.025;81;40.00;42114.00
1738586290.075;76;40.00;38332.20
1738586290.125;76;40.00;38332.20
1738586290.175;76;40.00;38332.20
1738586290.225;76;40.00;38332.20
1738586290.275;78;40.00;39624.80
1738586290.325;78;40.00;39624.80
1738586290.375;78;40.00;39624.80
1738586290.426;78;40.00;40043.73
1738586290.476;78;40.00;40130.93
1738586290.526;78;40.00;40130.93
1738586290.576;78;40.00;40130.93
1738586290.626;82;40.00;42968.54
1738586290.827;77;40.00;39408.33
1738586290.878;77;40.00;39408.33
1738586290.928;77;40.00;39408.33
1738586290.978;76;40.00;38468.80
1738586291.028;78;40.00;39737.60
1738586301.059;77;40.00;39059.40
1738586301.110;77;40.00;39059.40
1738586301.160;77;40.00;39059.40
1738586301.210;87;40.00;46832.80
1738586301.260;78;40.00;40132.93
1738586301.310;78;40.00;40132.93
1738586301.360;88;40.00;47198.13
1738586301.410;75;40.00;37990.80
1738586301.460;75;40.00;37990.80
1738586301.511;75;40.00;37990.80
1738586301.560;89;40.00;48260.93
1738586301.611;89;40.00;48260.93
1738586301.660;89;40.00;48260.93
1738586301.711;83;40.00;43524.27
1738586301.761;76;40.00;38233.87
1738586301.811;76;40.00;38233.87
1738586301.860;76;40.00;38233.87
1738586301.910;74;40.00;37051.60
1738586301.960;74;40.00;37051.60
1738586302.010;74;40.00;37051.60
1738586302.060;86;40.00;45779.33
1738586302.111;73;40.00;36315.60
1738586302.161;73;40.00;36315.60
1738586302.212;86;40.00;45863.73
1738586302.261;86;40.00;45863.73
1738586302.311;86;40.00;45863.73
1738586302.361;89;40.00;48231.40
1738586302.412;89;40.00;48231.40
1738586302.462;89;40.00;48231.40
1738586302.512;74;40.00;36884.27
1738586302.562;84;40.00;44131.73
1738586302.611;84;40.00;44131.73
1738586302.662;84;40.00;44131.73
1738586302.713;77;40.00;39178.93
1738586302.763;90;40.00;49017.60
1738586302.814;90;40.00;49017.60
1738586302.869;90;40.00;49017.60
1738586302.916;76;40.00;38655.73
1738586302.966;72;40.00;35784.40
1738586303.016;72;40.00;35784.40
1738586303.116;79;40.00;40520.27
1738586303.166;79;40.00;40520.27
1738586303.216;79;40.00;40520.27
1738586303.266;81;40.00;41869.33
1738586303.316;73;40.00;36287.93
1738586303.366;73;40.00;36287.93
1738586303.417;89;40.00;48270.46
1738586303.466;91;40.00;49582.93
1738586303.517;91;40.00;49582.93
1738586303.566;87;40.00;47035.73
1738586303.617;76;40.00;38758.93
1738586303.667;79;40.00;40557.07
1738586303.718;79;40.00;40557.07
1738586303.768;79;40.00;40950.13
1738586303.819;80;40.00;41117.33
1738586303.868;80;40.00;41117.33
1738586303.919;80;40.00;41117.33
1738586303.969;86;40.00;45874.33
1738586304.018;85;40.00;45261.46
1738586304.068;85;40.00;45261.46
1738586304.119;85;40.00;45261.46
1738586304.168;74;40.00;37198.33
1738586304.219;78;40.00;40040.13
1738586304.268;78;40.00;40040.13
1738586304.318;78;40.00;40040.13
1738586304.369;89;40.00;48048.46
1738586304.418;81;40.00;42139.20
1738586304.469;81;40.00;42139.20
1738586304.519;90;40.00;49409.54
1738586304.719;81;40.00;41870.67
1738586304.769;79;40.00;40486.80
1738586304.819;79;40.00;40486.80
1738586304.869;75;40.00;37997.27
1738586304.919;90;40.00;49394.93
1738586304.969;90;40.00;49394.93
1738586305.019;90;40.00;49394.93
1738586305.070;88;40.00;47814.73
1738586305.119;92;40.00;50603.46
1738586305.169;92;40.00;50603.46
1738586305.219;92;40.00;50603.46
1738586305.269;82;40.00;43201.07
1738586305.320;79;40.00;40546.13
1738586305.369;79;40.00;40576.54
1738586305.421;79;40.00;40576.54
1738586305.470;77;40.00;38914.13
1738586305.520;80;40.00;41182.40
1738586305.570;80;40.00;41182.40
1738586305.620;80;40.00;41182.40
1738586316.587;75;40.00;37650.40
1738586316.637;75;40.00;37650.40
1738586316.686;79;40.00;40721.60
1738586316.736;75;40.00;37874.87
1738586316.787;75;40.00;37874.87
1738586316.837;75;40.00;37874.87
1738586316.887;84;40.00;44637.80
1738586316.937;84;40.00;44637.80
1738586316.987;84;40.00;44637.80
1738586317.036;85;40.00;45464.00
1738586317.087;89;40.00;47986.93
1738586317.143;89;40.00;47986.93
1738586317.189;93;40.00;51002.07
1738586317.239;88;40.00;47880.80
1738586317.289;83;40.00;43740.20
1738586317.339;83;40.00;43740.20
1738586317.388;90;40.00;49276.54
1738586317.439;86;40.00;46172.80
1738586317.490;86;40.00;46172.80
1738586317.540;86;40.00;46172.80
1738586317.589;73;40.00;36039.73
1738586317.640;78;40.00;39844.80
1738586317.791;77;40.00;39061.07
1738586317.841;87;40.00;47079.20
1738586317.890;87;40.00;47079.20
1738586317.940;87;40.00;47079.20
1738586317.992;84;40.00;44836.27
1738586318.041;86;40.00;46198.07
1738586318.091;86;40.00;46198.07
1738586318.141;79;40.00;40892.54
1738586318.342;82;40.00;42930.73
1738586318.392;82;40.00;43168.07
1738586318.442;82;40.00;43168.07
1738586318.493;82;40.00;43168.07
1738586318.543;77;40.00;38950.93
1738586318.594;92;40.00;50196.00
1738586318.644;92;40.00;50196.00
1738586318.694;92;40.00;50196.00
1738586318.743;80;40.00;41118.13
1738586318.794;90;40.00;48995.60
1738586318.844;90;40.00;48995.60
1738586318.895;90;40.00;48995.60
1738586318.944;76;40.00;38441.20
1738586318.995;91;40.00;49508.20
1738586319.045;91;40.00;49508.20
1738586319.095;91;40.00;49508.20
1738586319.145;91;40.00;49769.40
1738586319.195;77;40.00;39116.93
1738586319.245;77;40.00;39116.93
1738586319.295;77;40.00;39116.93
1738586319.396;90;40.00;48978.80
1738586319.445;90;40.00;48978.80
1738586319.495;86;40.00;46229.20
1738586319.546;93;40.00;51274.93
1738586319.596;93;40.00;51274.93
1738586319.647;93;40.00;51274.93
1738586319.696;89;40.00;48318.67
1738586319.747;86;40.00;45823.20
1738586319.796;86;40.00;45823.20
1738586319.847;86;40.00;45823.20
1738586319.896;81;40.00;42213.33
1738586319.947;81;40.00;42213.33
1738586319.996;81;40.00;42213.33
1738586320.046;77;40.00;39531.33
1738586320.097;77;40.00;39198.20
1738586320.148;77;40.00;39198.20
1738586320.197;77;40.00;39198.20
1738586320.247;90;40.00;48956.54
1738586320.298;81;40.00;42288.54
1738586320.348;81;40.00;42288.54
1738586320.398;81;40.00;42288.54
1738586320.448;96;40.00;53494.60
1738586320.499;83;40.00;43893.46
1738586320.549;83;40.00;43893.46
1738586320.599;92;40.00;50269.33
1738586320.649;83;40.00;43822.60
1738586320.700;83;40.00;43822.60
1738586320.750;83;40.00;43822.60
1738586320.799;84;40.00;44326.40
1738586460.741;500;10.54;41459.00
1738586460.792;500;10.54;41459.00
1738586460.842;500;10.31;40077.46
1738586460.893;500;10.18;39247.20
1738586460.942;500;10.18;39247.20
1738586460.992;500;11.23;45614.54
1738586461.043;500;12.00;50201.60
1738586461.093;500;12.00;50201.60
1738586461.143;500;11.98;50092.93
1738586461.193;500;11.14;45040.80
1738586461.244;500;11.14;45040.80
1738586461.294;500;11.77;48852.46
1738586461.344;500;11.55;47517.87
1738586461.393;500;11.55;47517.87
1738586461.444;500;11.40;46624.80
1738586461.497;500;11.18;45266.54
1738586461.544;500;10.65;42090.13
1738586461.594;500;10.65;42090.13
1738586461.644;500;10.65;42090.13
1738586461.694;500;11.27;45808.00
1738586461.744;500;11.42;46734.40
1738586461.794;500;11.42;46734.40
1738586461.844;500;11.42;46734.40
1738586461.895;500;10.51;41237.33
1738586461.945;500;11.13;44955.07
1738586461.995;500;11.13;44955.07
1738586462.044;500;11.13;44955.07
1738586462.095;500;10.96;43934.33
1738586462.145;500;10.34;40226.27
1738586462.195;500;10.34;40226.27
1738586462.246;500;10.34;40226.27
1738586462.295;500;10.83;43186.40
1738586462.345;500;11.25;45706.13
1738586462.396;500;11.25;45706.13
1738586462.446;500;11.25;45706.13
1738586462.496;500;10.48;41076.00
1738586462.546;500;10.77;42826.07
1738586462.596;500;10.77;42826.07
1738586462.646;500;11.06;44591.07
1738586462.696;500;10.47;41020.07
1738586462.746;500;10.47;41020.07
1738586462.797;500;10.47;41020.07
1738586462.846;500;11.08;44683.46
1738586462.896;500;10.56;41571.33
1738586462.947;500;10.56;41571.33
1738586462.997;500;10.56;41571.33
1738586463.047;500;10.03;38369.33
1738586463.097;500;9.94;37823.33
1738586463.147;500;9.94;37823.33
1738586463.197;500;9.94;37823.33
1738586463.247;500;10.27;39828.00
1738586463.296;500;11.25;45688.13
1738586463.347;500;11.25;45688.13
1738586463.397;500;11.25;45688.13
1738586463.447;500;11.26;45786.93
1738586463.497;500;10.94;43825.60
1738586463.547;500;10.94;43825.60
1738586463.596;500;10.64;42039.13
1738586463.647;500;10.09;38704.80
1738586463.697;500;10.09;38704.80
1738586463.748;500;10.09;38704.80
1738586463.798;500;10.21;39465.33
1738586463.848;500;11.03;44410.93
1738586463.898;500;11.03;44410.93
1738586463.948;500;11.03;44410.93
1738586463.998;500;11.23;45563.33
1738586464.048;500;11.18;45268.40
1738586464.098;500;11.18;45268.40
1738586464.147;500;11.18;45268.40
1738586464.198;500;10.23;39538.67
1738586464.248;500;11.47;47005.60
1738586464.299;500;11.47;47005.60
1738586464.349;500;11.47;47005.60
1738586464.399;500;10.65;42106.54
1738586464.448;500;10.32;40082.93
1738586464.499;500;10.32;40082.93
1738586464.549;500;10.80;43004.27
1738586464.599;500;10.34;40201.46
1738586464.649;500;10.34;40201.46
1738586464.699;500;10.34;40201.46
1738586464.749;500;10.83;43172.93
1738586464.799;500;11.28;45899.60
1738586464.849;500;11.28;45899.60
1738586464.899;500;11.28;45899.60
1738586464.949;500;10.66;42126.07
1738586464.999;500;10.33;40147.27
1738586465.050;500;10.33;40147.27
1738586465.099;500;10.33;40147.27
1738586465.150;500;10.09;38709.87
1738586465.200;500;10.09;38709.87
1738586465.250;500;10.09;38709.87
1738586465.300;500;9.55;35468.00
1738586465.350;500;9.93;37747.93
1738586465.400;500;9.93;37747.93
1738586465.449;500;9.93;37747.93
1738586465.500;500;11.14;45041.33
1738586476.313;500;10.02;38328.54
1738586476.363;500;10.02;38328.54
1738586476.413;500;10.02;38328.54
1738586476.463;500;10.75;42692.54
1738586476.513;500;10.46;40936.93
1738586476.564;500;10.46;40936.93
1738586476.614;500;10.46;40936.93
1738586476.663;500;10.81;43084.87
1738586476.713;500;10.47;41002.54
1738586476.763;500;10.47;41002.54
1738586476.814;500;10.47;41002.54
1738586476.864;500;10.29;39949.46
1738586476.913;500;10.29;39949.46
1738586476.964;500;11.01;44269.93
1738586477.021;500;11.52;47340.54
1738586477.065;500;11.52;47340.54
1738586477.115;500;11.52;47340.54
1738586477.165;500;9.90;37602.07
1738586477.215;500;10.04;38436.20
1738586477.265;500;10.04;38436.20
1738586477.315;500;11.58;47693.07
1738586477.367;500;10.99;44134.93
1738586477.417;500;10.99;44134.93
1738586477.467;500;10.99;44134.93
1738586477.518;500;10.29;39946.54
1738586477.567;500;9.58;35655.33
1738586477.617;500;9.58;35655.33
1738586477.667;500;9.58;35655.33
1738586477.717;500;11.25;45690.93
1738586477.767;500;9.89;37544.13
1738586477.818;500;9.89;37544.13
1738586477.867;500;9.64;36004.40
1738586477.918;500;11.15;45133.93
1738586477.968;500;11.15;45133.93
1738586478.018;500;11.15;45133.93
1738586478.068;500;9.95;37901.07
1738586478.118;500;9.88;37432.27
1738586478.168;500;9.88;37432.27
1738586478.218;500;11.12;44897.07
1738586478.269;500;10.79;42965.60
1738586478.319;500;10.69;42327.73
1738586478.369;500;10.69;42327.73
1738586478.419;500;10.69;42327.73
1738586478.469;500;10.22;39496.27
1738586478.519;500;10.58;41701.93
1738586478.570;500;10.58;41701.93
1738586478.620;500;10.58;41701.93
1738586478.669;500;11.31;46067.07
1738586478.719;500;11.04;44413.20
1738586478.769;500;11.04;44413.20
1738586478.819;500;11.04;44413.20
1738586478.870;500;9.92;37701.07
1738586478.920;500;10.07;38589.33
1738586478.970;500;10.07;38589.33
1738586479.020;500;10.07;38589.33
1738586479.070;500;10.35;40301.33
1738586479.270;500;11.30;45982.93
1738586479.320;500;10.33;40150.93
1738586479.370;500;10.33;40150.93
1738586479.420;500;12.10;50820.40
1738586479.470;500;11.14;45032.60
1738586479.520;500;11.14;45032.60
1738586479.570;500;11.14;45032.60
1738586479.620;500;11.14;45032.60
1738586479.670;500;11.00;44217.33
1738586479.720;500;11.00;44217.33
1738586479.770;500;11.00;44217.33
1738586479.820;500;11.24;45635.73
1738586479.870;500;10.68;42289.33
1738586479.920;500;10.68;42289.33
1738586479.970;500;10.68;42289.33
1738586480.020;500;10.36;40347.40
1738586480.070;500;10.52;41342.67
1738586480.120;500;10.52;41342.67
1738586480.171;500;10.52;41342.67
1738586480.220;500;11.16;45162.40
1738586480.272;500;11.51;47247.07
1738586480.322;500;11.51;47247.07
1738586480.371;500;11.51;47247.07
1738586480.422;500;10.79;42916.00
1738586480.471;500;10.37;40412.54
1738586480.521;500;10.37;40412.54
1738586480.572;500;10.37;40412.54
1738586480.623;500;10.37;40428.80
1738586480.672;500;11.55;47527.07
1738586480.723;500;11.55;47527.07
1738586480.772;500;11.55;47527.07
1738586480.824;500;11.96;49983.46
1738586480.873;500;11.63;47996.00
1738586480.923;500;11.63;47996.00
1738586480.974;500;11.63;47996.00
1738586481.025;500;11.65;48138.54
1738586481.075;500;9.94;37826.46
1738586481.125;500;9.94;37826.46
1738586481.175;500;9.94;37826.46
1738586481.225;500;10.48;41086.80
1738586491.743;500;11.38;46468.40
1738586491.794;500;11.38;46468.40
1738586491.844;500;11.38;46468.40
1738586491.894;500;10.69;42333.00
1738586491.944;500;11.42;46730.27
1738586491.993;500;11.42;46730.27
1738586492.044;500;11.42;46730.27
1738586492.093;500;11.70;48429.60
1738586492.144;500;11.70;48429.60
1738586492.193;500;11.70;48429.60
1738586492.245;500;11.11;44872.54
1738586492.294;500;11.11;44872.54
1738586492.344;500;11.11;44872.54
1738586492.396;500;11.15;45133.07
1738586492.445;500;11.15;45133.07
1738586492.494;500;11.15;45133.07
1738586492.545;500;10.16;39162.54
1738586492.595;500;10.16;39162.54
1738586492.645;500;10.16;39162.54
1738586492.695;500;10.60;41801.73
1738586492.745;500;10.60;41801.73
1738586492.795;500;10.60;41801.73
1738586492.845;500;11.15;45132.93
1738586492.895;500;11.15;45132.93
1738586492.945;500;11.15;45132.93
1738586492.995;500;10.79;42945.07
1738586493.045;500;10.79;42945.07
1738586493.095;500;10.79;42945.07
1738586493.145;500;10.80;42980.87
1738586493.195;500;11.39;46560.00
1738586493.245;500;11.39;46560.00
1738586493.295;500;10.42;40722.87
1738586493.345;500;10.57;41629.87
1738586493.396;500;10.57;41629.87
1738586493.445;500;10.57;41629.87
1738586493.495;500;10.96;43942.93
1738586493.546;500;9.82;37090.80
1738586493.596;500;10.74;42665.73
1738586493.647;500;10.74;42665.73
1738586493.697;500;10.51;41264.27
1738586493.747;500;11.91;49681.33
1738586493.796;500;11.91;49681.33
1738586493.847;500;11.91;49681.33
1738586493.897;500;9.97;37985.33
1738586493.947;500;10.32;40103.60
1738586493.997;500;10.32;40103.60
1738586494.047;500;10.32;40103.60
1738586494.097;500;10.97;43995.20
1738586494.147;500;10.97;43995.20
1738586494.197;500;10.97;43995.20
1738586494.246;500;11.59;47761.73
1738586494.296;500;11.59;47761.73
1738586494.347;500;11.59;47761.73
1738586494.397;500;10.80;43026.93
1738586494.447;500;10.72;42504.27
1738586494.497;500;10.72;42504.27
1738586494.547;500;10.72;42504.27
1738586494.597;500;11.59;47764.13
1738586494.647;500;11.59;47764.13
1738586494.699;500;11.59;47764.13
1738586494.749;500;11.21;45445.87
1738586494.799;500;9.95;37861.07
1738586494.849;500;9.95;37861.07
1738586494.899;500;9.95;37861.07
1738586494.948;500;11.11;44892.00
1738586494.999;500;11.11;44892.00
1738586495.048;500;11.11;44892.00
1738586495.099;500;9.74;36615.46
1738586495.149;500;9.74;36615.46
1738586495.199;500;9.74;36615.46
1738586495.249;500;10.99;44158.73
1738586495.299;500;10.24;39599.46
1738586495.349;500;10.24;39599.46
1738586495.399;500;10.24;39599.46
1738586495.449;500;11.42;46757.60
1738586495.499;500;10.94;43828.46
1738586495.550;500;10.94;43828.46
1738586495.599;500;10.65;42106.07
1738586495.650;500;10.65;42087.60
1738586495.699;500;10.71;42463.73
1738586495.749;500;10.71;42463.73
1738586495.800;500;11.07;44639.73
1738586495.850;500;11.49;47120.07
1738586495.900;500;11.70;48420.93
1738586495.951;500;11.70;48420.93
1738586496.000;500;11.53;47395.73
1738586496.051;500;10.91;43649.87
1738586496.100;500;11.34;46235.20
1738586496.151;500;11.34;46235.20
1738586496.201;500;11.96;49990.87
1738586633.978;83;30.00;43691.54
1738586634.029;85;30.00;45297.33
1738586634.078;85;30.00;45297.33
1738586634.129;81;30.00;42532.87
1738586634.179;73;30.00;36209.60
1738586634.229;73;30.00;36209.60
1738586634.280;85;30.00;45134.67
1738586634.330;80;30.00;41441.40
1738586634.381;80;30.00;41441.40
1738586634.430;80;30.00;41441.40
1738586634.480;85;30.00;45219.20
1738586634.531;85;30.00;45219.20
1738586634.580;85;30.00;45219.20
1738586634.636;84;30.00;44134.67
1738586634.680;77;30.00;39035.60
1738586634.730;77;30.00;39035.60
1738586634.781;79;30.00;40544.93
1738586634.830;87;30.00;47150.40
1738586634.880;87;30.00;47150.40
1738586634.930;87;30.00;47150.40
1738586634.981;78;30.00;39684.00
1738586635.030;77;30.00;39210.93
1738586635.080;77;30.00;39210.93
1738586635.131;82;30.00;42878.93
1738586635.181;81;30.00;42073.73
1738586635.231;81;30.00;42073.73
1738586635.281;81;30.00;42073.73
1738586635.331;75;30.00;37543.87
1738586635.381;84;30.00;44420.67
1738586635.432;84;30.00;44420.67
1738586635.483;84;30.00;44420.67
1738586635.533;85;30.00;45396.46
1738586635.583;85;30.00;45396.46
1738586635.634;85;30.00;45396.46
1738586635.684;86;30.00;45726.73
1738586635.733;83;30.00;43900.46
1738586635.783;83;30.00;43900.46
1738586635.834;83;30.00;43900.46
1738586635.884;83;30.00;43871.73
1738586635.934;73;30.00;36520.73
1738586635.984;73;30.00;36520.73
1738586636.033;73;30.00;36520.73
1738586636.084;80;30.00;41507.07
1738586636.134;85;30.00;45219.46
1738586636.184;85;30.00;45219.46
1738586636.234;85;30.00;45219.46
1738586636.284;78;30.00;40058.67
1738586636.334;82;30.00;43137.07
1738586636.384;82;30.00;43137.07
1738586636.434;82;30.00;43137.07
1738586636.485;79;30.00;40606.40
1738586636.534;88;30.00;47673.20
1738586636.584;88;30.00;47673.20
1738586636.634;88;30.00;47673.20
1738586636.685;83;30.00;43417.07
1738586636.735;73;30.00;36511.73
1738586636.785;73;30.00;36511.73
1738586636.834;73;30.00;36511.73
1738586636.890;73;30.00;36316.40
1738586636.937;85;30.00;45549.00
1738586636.987;85;30.00;45549.00
1738586637.037;85;30.00;45549.00
1738586637.088;77;30.00;39354.46
1738586637.137;77;30.00;39354.46
1738586637.188;77;30.00;39354.46
1738586637.238;79;30.00;40652.07
1738586637.287;82;30.00;43259.54
1738586637.339;82;30.00;43259.54
1738586637.388;75;30.00;37357.73
1738586637.439;83;30.00;43544.13
1738586637.489;83;30.00;43544.13
1738586637.538;83;30.00;43544.13
1738586637.588;74;30.00;36958.00
1738586637.639;92;30.00;50600.67
1738586637.689;92;30.00;50600.67
1738586637.740;92;30.00;50600.67
1738586637.789;81;30.00;42460.20
1738586637.840;85;30.00;45215.60
1738586637.890;85;30.00;45215.60
1738586637.940;81;30.00;41920.73
1738586637.995;81;30.00;42287.33
1738586638.043;77;30.00;39557.07
1738586638.092;77;30.00;39557.07
1738586638.143;80;30.00;41132.54
1738586638.193;87;30.00;46753.87
1738586638.243;87;30.00;46753.87
1738586638.293;87;30.00;46753.87
1738586638.343;88;30.00;47537.33
1738586638.393;85;30.00;44915.27
1738586638.443;85;30.00;44915.27
1738586638.493;85;30.00;44915.27
1738586638.543;81;30.00;42506.67
1738586638.593;88;30.00;47324.87
1738586638.642;88;30.00;47324.87
1738586638.693;88;30.00;47324.87
1738586638.743;86;30.00;46333.87
1738586638.793;86;30.00;46354.93
1738586650.346;79;30.00;40913.20
1738586650.396;79;30.00;40913.20
1738586650.446;79;30.00;40913.20
1738586650.497;79;30.00;40646.13
1738586650.547;79;30.00;40413.20
1738586650.597;79;30.00;40413.20
1738586650.647;79;30.00;40413.20
1738586650.697;86;30.00;45662.93
1738586650.747;82;30.00;42943.33
1738586650.798;82;30.00;42943.33
1738586650.847;82;30.00;42943.33
1738586650.898;79;30.00;40612.27
1738586650.947;77;30.00;39103.67
1738586650.998;77;30.00;39103.67
1738586651.048;77;30.00;39103.67
1738586651.098;81;30.00;42348.00
1738586651.148;77;30.00;39147.33
1738586651.198;77;30.00;39147.33
1738586651.248;77;30.00;39147.33
1738586651.299;79;30.00;40468.67
1738586651.349;83;30.00;43786.40
1738586651.399;83;30.00;43786.40
1738586651.449;83;30.00;43786.40
1738586651.498;85;30.00;45255.20
1738586651.549;89;30.00;48234.40
1738586651.599;89;30.00;48234.40
1738586651.649;89;30.00;48234.40
1738586651.699;75;30.00;37618.54
1738586651.750;82;30.00;43201.87
1738586651.800;82;30.00;43201.87
1738586651.850;82;30.00;43201.87
1738586651.900;78;30.00;39760.00
1738586651.950;80;30.00;41178.40
1738586652.001;80;30.00;41178.40
1738586652.051;80;30.00;41178.40
1738586652.101;81;30.00;42216.93
1738586652.151;89;30.00;47954.67
1738586652.200;89;30.00;47954.67
1738586652.251;89;30.00;47954.67
1738586652.301;82;30.00;42994.80
1738586652.352;84;30.00;44353.33
1738586652.403;84;30.00;44353.33
1738586652.452;84;30.00;44353.33
1738586652.503;81;30.00;42572.00
1738586652.552;83;30.00;43686.07
1738586652.603;83;30.00;43686.07
1738586652.652;86;30.00;45747.27
1738586652.702;90;30.00;49163.87
1738586652.753;89;30.00;47918.00
1738586652.803;89;30.00;47918.00
1738586652.852;86;30.00;46130.13
1738586652.903;73;30.00;36404.54
1738586652.953;73;30.00;36404.54
1738586653.003;73;30.00;36404.54
1738586653.053;75;30.00;37607.40
1738586653.103;75;30.00;37316.27
1738586653.153;76;30.00;38691.20
1738586653.203;76;30.00;38691.20
1738586653.253;85;30.00;45525.80
1738586653.303;88;30.00;47865.13
1738586653.353;79;30.00;40748.67
1738586653.404;79;30.00;40748.67
1738586653.453;75;30.00;37638.93
1738586653.504;84;30.00;44621.67
1738586653.554;77;30.00;38871.87
1738586653.604;77;30.00;38871.87
1738586653.654;80;30.00;41148.80
1738586653.704;76;30.00;38162.80
1738586653.754;74;30.00;36668.54
1738586653.804;74;30.00;36668.54
1738586653.854;74;30.00;36668.54
1738586653.904;85;30.00;44980.07
1738586654.104;85;30.00;45476.54
1738586654.154;74;30.00;36955.33
1738586654.205;74;30.00;36955.33
1738586654.254;76;30.00;38442.13
1738586654.305;89;30.00;48231.73
1738586654.354;89;30.00;48231.73
1738586654.405;89;30.00;48231.73
1738586654.455;82;30.00;43366.13
1738586654.505;82;30.00;43366.13
1738586654.555;82;30.00;43366.13
1738586654.605;84;30.00;44709.33
1738586654.655;84;30.00;44822.93
1738586654.706;84;30.00;44822.93
1738586654.755;84;30.00;44822.93
1738586654.806;84;30.00;44822.93
1738586654.855;74;30.00;37193.40
1738586654.906;77;30.00;38905.60
1738586654.955;77;30.00;38905.60
1738586655.006;77;30.00;38905.60
1738586655.056;90;30.00;48749.87
1738586665.932;82;30.00;43030.93
1738586665.982;87;30.00;46672.54
1738586666.032;87;30.00;46672.54
1738586666.082;85;30.00;45374.13
1738586666.132;88;30.00;47298.40
1738586666.182;88;30.00;47298.40
1738586666.232;87;30.00;47095.20
1738586666.282;79;30.00;40776.54
1738586666.333;78;30.00;40235.60
1738586666.383;78;30.00;40235.60
1738586666.583;83;30.00;43937.00
1738586666.633;76;30.00;38606.67
1738586666.684;76;30.00;38606.67
1738586666.733;76;30.00;38606.67
1738586666.783;86;30.00;46165.27
1738586666.833;86;30.00;46165.27
1738586666.884;86;30.00;46165.27
1738586666.933;86;30.00;46385.20
1738586666.983;80;30.00;41348.46
1738586667.034;80;30.00;41348.46
1738586667.084;81;30.00;42352.80
1738586667.133;86;30.00;45652.27
1738586667.183;77;30.00;39317.33
1738586667.234;77;30.00;39317.33
1738586667.284;81;30.00;42593.93
1738586667.334;78;30.00;39836.54
1738586667.384;78;30.00;39836.54
1738586667.434;78;30.00;39836.54
1738586667.485;87;30.00;46570.67
1738586667.535;89;30.00;48075.40
1738586667.585;89;30.00;48075.40
1738586667.635;89;30.00;48075.40
1738586667.687;79;30.00;40348.93
1738586667.737;82;30.00;43061.27
1738586667.787;82;30.00;43061.27
1738586667.837;82;30.00;43061.27
1738586667.887;90;30.00;49240.40
1738586667.937;90;30.00;49240.40
1738586667.987;90;30.00;49240.40
1738586668.037;82;30.00;43103.54
1738586668.088;81;30.00;42497.20
1738586668.138;81;30.00;42497.20
1738586668.187;81;30.00;42497.20
1738586668.237;91;30.00;50028.33
1738586668.287;73;30.00;36187.87
1738586668.337;73;30.00;36187.87
1738586668.389;73;30.00;36187.87
1738586668.439;89;30.00;48432.20
1738586668.488;79;30.00;40978.13
1738586668.539;79;30.00;40978.13
1738586668.588;79;30.00;40978.13
1738586668.639;87;30.00;46488.46
1738586668.689;77;30.00;38921.46
1738586668.739;77;30.00;38921.46
1738586668.789;77;30.00;38921.46
1738586668.840;74;30.00;36725.33
1738586669.039;74;30.00;37192.80
1738586669.090;82;30.00;43106.13
1738586669.140;82;30.00;43106.13
1738586669.190;81;30.00;42104.87
1738586669.241;88;30.00;47735.60
1738586669.290;87;30.00;46454.27
1738586669.340;87;30.00;46454.27
1738586669.391;90;30.00;48707.40
1738586669.440;88;30.00;47301.87
1738586669.491;88;30.00;47301.87
1738586669.541;88;30.00;47301.87
1738586669.591;89;30.00;48467.33
1738586669.642;91;30.00;50145.46
1738586669.691;91;30.00;50145.46
1738586669.742;91;30.00;50145.46
1738586669.792;92;30.00;50370.13
1738586669.842;88;30.00;47450.13
1738586669.892;88;30.00;47450.13
1738586669.942;88;30.00;47450.13
1738586669.992;89;30.00;48245.33
1738586670.043;85;30.00;45566.13
1738586670.093;85;30.00;45566.13
1738586670.149;85;30.00;45566.13
1738586670.197;73;30.00;36231.87
1738586670.248;90;30.00;48867.93
1738586670.297;90;30.00;48867.93
1738586670.348;90;30.00;48867.93
1738586670.398;88;30.00;47247.87
1738586670.448;85;30.00;45225.20
1738586670.498;85;30.00;45225.20
1738586670.548;85;30.00;45225.20
1738586670.599;80;30.00;41314.13
1738586980.064;50;10.12;38880.73
1738586980.114;50;10.12;38880.73
1738586980.164;50;10.12;38880.73
1738586980.214;50;11.69;48379.67
1738586980.265;50;10.74;42628.73
1738586980.315;50;10.74;42628.73
1738586980.365;50;10.74;42628.73
1738586980.417;50;11.10;44809.73
1738586980.467;50;11.24;45668.80
1738586980.518;50;11.24;45668.80
1738586980.567;50;11.24;45668.80
1738586980.618;50;11.43;46759.60
1738586980.668;50;11.29;45958.00
1738586980.718;50;11.29;45958.00
1738586980.768;50;10.12;38912.93
1738586980.818;50;10.96;43968.20
1738586980.868;50;10.96;43968.20
1738586980.918;50;10.96;43968.20
1738586980.968;50;10.17;39178.40
1738586981.018;50;10.27;39817.60
1738586981.068;50;10.27;39817.60
1738586981.119;50;10.27;39817.60
1738586981.169;50;11.31;46057.60
1738586981.219;50;10.11;38846.93
1738586981.269;50;10.11;38846.93
1738586981.318;50;10.11;38846.93
1738586981.369;50;11.33;46165.73
1738586981.419;50;10.81;43033.67
1738586981.469;50;10.81;43033.67
1738586981.519;50;10.81;43033.67
1738586981.568;50;9.68;36230.93
1738586981.619;50;9.68;36230.93
1738586981.668;50;9.68;36230.93
1738586981.719;50;11.57;47645.07
1738586981.769;50;11.23;45609.20
1738586981.819;50;11.23;45609.20
1738586981.870;50;10.76;42756.80
1738586981.921;50;11.63;47963.20
1738586981.970;50;11.63;47963.20
1738586982.020;50;11.63;47963.20
1738586982.070;50;11.80;48999.73
1738586982.120;50;12.53;53379.07
1738586982.170;50;11.96;49986.80
1738586982.220;50;11.96;49986.80
1738586982.271;50;10.93;43803.73
1738586982.322;50;11.13;44955.07
1738586982.372;50;10.82;43101.07
1738586982.422;50;10.82;43101.07
1738586982.472;50;10.82;43101.07
1738586982.522;50;12.01;50279.73
1738586982.572;50;12.01;50279.73
1738586982.623;50;12.01;50279.73
1738586982.672;50;11.00;44182.60
1738586982.722;50;11.52;47344.54
1738586982.774;50;11.52;47344.54
1738586982.824;50;11.52;47344.54
1738586982.874;50;11.41;46697.33
1738586982.923;50;11.41;46697.33
1738586982.973;50;11.41;46697.33
1738586983.024;50;11.30;46005.46
1738586983.073;50;11.56;47563.07
1738586983.124;50;11.56;47563.07
1738586983.173;50;9.88;37441.07
1738586983.223;50;11.20;45424.93
1738586983.274;50;11.20;45424.93
1738586983.324;50;11.20;45424.93
1738586983.373;50;10.97;44038.40
1738586983.424;50;11.51;47263.93
1738586983.474;50;11.51;47263.93
1738586983.524;50;11.51;47263.93
1738586983.574;50;11.51;47269.87
1738586983.624;50;12.20;51418.54
1738586983.674;50;12.20;51418.54
1738586983.723;50;12.20;51418.54
1738586983.774;50;11.50;47222.40
1738586983.824;50;10.96;43949.00
1738586983.874;50;10.96;43949.00
1738586983.925;50;10.96;43949.00
1738586983.974;50;11.59;47740.93
1738586984.025;50;10.86;43347.87
1738586984.075;50;10.86;43347.87
1738586984.124;50;10.86;43347.87
1738586984.174;50;12.01;50258.13
1738586984.224;50;11.37;46412.40
1738586984.275;50;11.37;46412.40
1738586984.330;50;11.37;46412.40
1738586984.378;50;11.03;44389.87
1738586984.428;50;11.03;44374.00
1738586984.478;50;11.03;44374.00
1738586984.528;50;11.03;44374.00
1738586984.578;50;11.74;48677.80
1738586984.628;50;11.73;48574.67
1738586984.678;50;11.73;48574.67
1738586984.728;50;11.73;48574.67
1738586984.779;50;10.28;39894.07
1738586984.829;50;12.05;50546.40
1738586984.880;50;12.05;50546.40
1738586984.930;50;12.05;50546.40
1738586984.980;50;10.74;42661.73
1738586995.569;50;10.17;39216.80
1738586995.619;50;10.17;39216.80
1738586995.669;50;10.17;39216.80
1738586995.719;50;10.82;43106.60
1738586995.768;50;11.30;46030.87
1738586995.819;50;11.30;46030.87
1738586995.870;50;10.10;38795.87
1738586995.920;50;11.22;45532.20
1738586995.969;50;11.22;45532.20
1738586996.019;50;11.22;45532.20
1738586996.069;50;11.75;48703.27
1738586996.120;50;11.75;48703.27
1738586996.170;50;11.75;48703.27
1738586996.220;50;11.47;47011.40
1738586996.270;50;11.72;48504.07
1738586996.320;50;11.72;48504.07
1738586996.370;50;11.36;46352.46
1738586996.420;50;11.80;49036.60
1738586996.470;50;11.48;47072.27
1738586996.520;50;11.48;47072.27
1738586996.570;50;11.79;48968.60
1738586996.620;50;10.88;43497.27
1738586996.670;50;10.51;41267.33
1738586996.720;50;10.51;41267.33
1738586996.770;50;11.06;44587.20
1738586996.821;50;10.98;44052.67
1738586996.871;50;10.98;44052.67
1738586996.921;50;10.98;44052.67
1738586996.971;50;12.05;50536.27
1738586997.022;50;11.39;46563.20
1738586997.071;50;11.39;46563.20
1738586997.122;50;11.39;46563.20
1738586997.172;50;10.95;43880.46
1738586997.222;50;12.41;52685.00
1738586997.273;50;12.41;52685.00
1738586997.324;50;12.41;52685.00
1738586997.374;50;11.50;47210.13
1738586997.424;50;11.55;47481.60
1738586997.474;50;12.02;50311.46
1738586997.525;50;12.02;50311.46
1738586997.575;50;12.02;50311.46
1738586997.624;50;10.86;43376.27
1738586997.675;50;11.93;49827.46
1738586997.725;50;11.93;49827.46
1738586997.774;50;11.93;49827.46
1738586997.825;50;11.52;47300.54
1738586997.874;50;11.38;46515.46
1738586997.925;50;11.38;46515.46
1738586997.975;50;11.38;46515.46
1738586998.026;50;11.27;45819.60
1738586998.076;50;11.08;44710.00
1738586998.126;50;11.08;44710.00
1738586998.176;50;11.08;44710.00
1738586998.226;50;10.49;41139.87
1738586998.276;50;11.75;48714.60
1738586998.326;50;11.75;48714.60
1738586998.376;50;11.75;48714.60
1738586998.426;50;11.70;48406.27
1738586998.476;50;11.95;49898.60
1738586998.526;50;11.95;49898.60
1738586998.576;50;10.98;44096.20
1738586998.626;50;10.97;43992.93
1738586998.676;50;10.91;43651.46
1738586998.727;50;10.91;43651.46
1738586998.778;50;11.47;47041.80
1738586998.828;50;11.42;46754.80
1738586998.878;50;11.42;46754.80
1738586998.929;50;10.94;43838.33
1738586998.978;50;11.64;48081.87
1738586999.029;50;11.64;48081.87
1738586999.079;50;11.64;48081.87
1738586999.129;50;11.27;45843.67
1738586999.179;50;12.35;52320.80
1738586999.229;50;12.35;52320.80
1738586999.278;50;12.35;52320.80
1738586999.329;50;11.78;48870.67
1738586999.379;50;11.41;46647.87
1738586999.429;50;11.41;46647.87
1738586999.479;50;11.41;46647.87
1738586999.530;50;11.46;46995.07
1738586999.579;50;10.68;42287.67
1738586999.630;50;10.68;42287.67
1738586999.680;50;10.68;42287.67
1738586999.731;50;11.63;47986.54
1738586999.781;50;11.70;48384.73
1738586999.831;50;11.70;48384.73
1738586999.881;50;11.78;48892.00
1738586999.932;50;11.95;49889.07
1738586999.981;50;11.95;49889.07
1738587000.031;50;11.95;49889.07
1738587000.083;50;10.78;42886.00
1738587000.132;50;12.40;52613.13
1738587000.184;50;12.40;52613.13
1738587000.233;50;12.40;52613.13
1738587000.284;50;10.99;44164.40
1738587000.335;50;11.17;45221.07
1738587000.384;50;11.17;45221.07
1738587000.434;50;11.26;45751.87
1738587011.408;50;10.40;40565.20
1738587011.459;50;10.40;40565.20
1738587011.509;50;10.40;40565.20
1738587011.559;50;10.40;40565.20
1738587011.608;50;10.98;44085.07
1738587011.658;50;10.98;44085.07
1738587011.709;50;10.98;44085.07
1738587011.758;50;10.67;42209.00
1738587011.808;50;10.67;42209.00
1738587011.859;50;10.67;42209.00
1738587011.908;50;11.47;47050.67
1738587011.959;50;11.47;47050.67
1738587012.008;50;11.47;47050.67
1738587012.059;50;11.61;47869.20
1738587012.108;50;11.61;47869.20
1738587012.159;50;11.61;47869.20
1738587012.210;50;9.83;37139.87
1738587012.260;50;10.21;39422.40
1738587012.311;50;10.21;39422.40
1738587012.360;50;10.21;39422.40
1738587012.411;50;11.10;44807.27
1738587012.461;50;10.80;43014.93
1738587012.511;50;10.80;43014.93
1738587012.561;50;10.80;43014.93
1738587012.612;50;9.91;37621.73
1738587012.661;50;9.91;37621.73
1738587012.712;50;9.91;37621.73
1738587012.761;50;10.32;40096.40
1738587012.812;50;11.74;48638.60
1738587012.861;50;11.74;48638.60
1738587012.912;50;11.74;48638.60
1738587012.963;50;11.61;47872.27
1738587013.013;50;11.50;47199.46
1738587013.063;50;11.50;47199.46
1738587013.113;50;11.50;47199.46
1738587013.163;50;12.68;54287.80
1738587013.213;50;12.68;54287.80
1738587013.262;50;12.68;54287.80
1738587013.313;50;12.57;53641.87
1738587013.363;50;12.01;50291.20
1738587013.413;50;12.01;50291.20
1738587013.463;50;12.01;50291.20
1738587013.513;50;11.18;45288.54
1738587013.563;50;10.96;43971.60
1738587013.614;50;10.96;43971.60
1738587013.664;50;10.96;43971.60
1738587013.714;50;10.61;41857.87
1738587013.763;50;10.61;41857.87
1738587013.813;50;10.61;41857.87
1738587013.864;50;11.70;48422.27
1738587013.914;50;11.70;48422.27
1738587013.964;50;11.70;48422.27
1738587014.015;50;11.11;44837.87
1738587014.064;50;11.11;44837.87
1738587014.115;50;11.11;44837.87
1738587014.164;50;11.11;44837.87
1738587014.214;50;11.50;47199.87
1738587014.265;50;11.50;47199.87
1738587014.316;50;11.50;47199.87
1738587014.365;50;11.54;47475.46
1738587014.415;50;11.54;47475.46
1738587014.466;50;11.54;47475.46
1738587014.515;50;11.00;44199.40
1738587014.565;50;9.96;37926.73
1738587014.615;50;9.96;37926.73
1738587014.666;50;9.96;37926.73
1738587014.716;50;11.74;48646.40
1738587014.766;50;11.74;48646.40
1738587014.816;50;11.74;48646.40
1738587014.866;50;11.74;48646.40
1738587014.916;50;12.25;51739.20
1738587014.966;50;12.25;51739.20
1738587015.016;50;12.25;51739.20
1738587015.066;50;11.85;49314.46
1738587015.116;50;11.55;47491.87
1738587015.166;50;11.55;47491.87
1738587015.216;50;11.55;47491.87
1738587015.266;50;10.80;42984.40
1738587015.316;50;10.80;42984.40
1738587015.366;50;10.80;42984.40
1738587015.416;50;11.10;44781.20
1738587015.466;50;11.10;44781.20
1738587015.517;50;11.10;44781.20
1738587015.567;50;11.24;45636.93
1738587015.625;50;11.24;45636.93
1738587015.667;50;11.24;45636.93
1738587015.717;50;10.17;39217.07
