UnixTimestamp;Microseconds;MilliAmpere;BaseValue
1740148146.156;400;18.53;37292.67
1740148146.204;400;18.53;37292.67
1740148146.758;400;18.54;37329.07
1740148146.808;400;18.54;37329.07
1740148146.858;400;21.41;44815.73
1740148146.908;400;21.41;44815.73
1740148146.958;400;21.41;44815.73
1740148147.008;400;21.87;46025.73
1740148147.058;400;21.87;46025.73
1740148147.109;400;21.87;46025.73
1740148147.158;400;20.52;42502.00
1740148147.208;400;20.52;42502.00
1740148147.409;400;18.96;38420.13
1740148147.458;400;18.96;38420.13
1740148147.658;400;18.94;38360.93
1740148147.708;400;18.94;38360.93
1740148147.758;400;18.38;36897.07
1740148147.809;400;20.27;41849.60
1740148147.859;400;20.27;41849.60
1740148147.909;400;22.52;47722.60
1740148147.959;400;22.52;47722.60
1740148148.008;400;22.52;47722.60
1740148148.159;400;22.03;46432.67
1740148148.209;400;22.03;46432.67
1740148148.258;400;20.02;41182.00
1740148148.309;400;21.92;46159.93
1740148148.358;400;21.92;46159.93
1740148148.709;400;18.53;37300.54
1740148148.759;400;18.53;37300.54
1740148148.809;400;18.53;37285.60
1740148148.859;400;18.53;37285.60
1740148148.909;400;18.53;37285.60
1740148149.311;400;18.60;37484.00
1740148149.360;400;18.60;37484.00
1740148149.411;400;18.60;37484.00
1740148149.561;400;22.38;47350.93
1740148149.711;400;20.13;41487.40
1740148160.245;400;18.34;36796.93
1740148160.296;400;18.34;36796.93
1740148160.346;400;18.34;36798.40
1740148160.396;400;20.28;41872.00
1740148160.446;400;20.28;41872.00
1740148160.597;400;19.62;40133.87
1740148160.746;400;22.00;46363.60
1740148160.797;400;22.00;46363.60
1740148160.847;400;22.00;46363.60
1740148160.897;400;18.34;36802.00
1740148160.947;400;18.34;36802.00
1740148160.997;400;18.34;36802.00
1740148161.047;400;21.68;45525.73
1740148161.097;400;21.68;45525.73
1740148161.147;400;20.48;42400.54
1740148161.197;400;22.05;46487.87
1740148161.247;400;22.05;46487.87
1740148161.398;400;22.18;46827.07
1740148161.448;400;22.18;46827.07
1740148161.498;400;22.18;46827.07
1740148161.549;400;21.53;45146.67
1740148161.598;400;21.53;45146.67
1740148161.648;400;19.67;40284.80
1740148161.698;400;19.98;41096.27
1740148161.748;400;19.98;41096.27
1740148162.048;400;18.65;37594.80
1740148162.098;400;18.65;37594.80
1740148162.148;400;18.65;37594.80
1740148162.298;400;18.92;38304.00
1740148162.599;400;18.31;36728.27
1740148162.648;400;18.31;36728.27
1740148162.699;400;18.62;37538.27
1740148162.749;400;18.62;37538.27
1740148162.799;400;18.35;36832.54
1740148162.849;400;21.52;45100.27
1740148162.899;400;21.52;45100.27
1740148163.200;400;18.70;37741.60
1740148163.249;400;18.70;37741.60
1740148163.300;400;18.70;37741.60
1740148163.350;400;20.98;43686.13
1740148163.400;400;21.33;44624.93
1740148163.451;400;21.33;44624.93
1740148163.501;400;20.72;43031.20
1740148163.550;400;20.72;43031.20
1740148163.601;400;20.72;43031.20
1740148163.650;400;21.48;45016.93
1740148163.701;400;21.48;45016.93
1740148163.901;400;19.79;40596.80
1740148163.951;400;19.79;40596.80
1740148174.677;400;18.38;36890.33
1740148174.727;400;18.38;36890.33
1740148174.777;400;19.74;40466.40
1740148174.827;400;19.74;40466.40
1740148174.877;400;21.19;44244.00
1740148174.927;400;20.42;42223.13
1740148174.977;400;20.42;42223.13
1740148175.027;400;18.45;37083.13
1740148175.077;400;18.42;37016.40
1740148175.127;400;18.42;37016.40
1740148175.177;400;20.01;41155.93
1740148175.227;400;20.01;41155.93
1740148175.277;400;19.92;40916.93
1740148175.327;400;19.92;40916.93
1740148175.378;400;19.92;40916.93
1740148175.428;400;22.19;46859.87
1740148175.479;400;22.19;46859.87
1740148175.529;400;22.62;47994.13
1740148175.829;400;18.30;36695.20
1740148175.879;400;18.30;36695.20
1740148176.180;400;19.93;40948.13
1740148176.231;400;18.67;37658.93
1740148176.281;400;18.67;37658.93
1740148176.481;400;18.27;36602.93
1740148176.531;400;18.27;36602.93
1740148176.582;400;22.11;46648.54
1740148176.632;400;22.11;46648.54
1740148176.681;400;22.11;46648.54
1740148176.732;400;21.20;44278.54
1740148176.782;400;21.20;44278.54
1740148176.832;400;19.48;39768.27
1740148176.882;400;19.45;39685.60
1740148176.932;400;19.45;39685.60
1740148176.982;400;20.88;43441.73
1740148177.031;400;20.88;43441.73
1740148177.082;400;20.88;43441.73
1740148177.132;400;21.36;44685.33
1740148177.182;400;21.36;44685.33
1740148177.232;400;19.66;40251.07
1740148177.632;400;19.10;38785.07
1740148177.682;400;19.10;38785.07
1740148177.732;400;19.10;38785.07
1740148177.782;400;19.23;39118.60
1740148177.832;400;19.23;39118.60
1740148177.882;400;18.47;37127.60
1740148177.932;400;18.47;37127.60
1740148177.982;400;22.77;48384.93
1740148178.032;400;21.74;45680.80
1740148178.082;400;21.74;45680.80
1740148352.491;96;50.00;37576.27
1740148352.542;96;50.00;37576.27
1740148352.592;96;50.00;37251.46
1740148352.642;96;50.00;37457.54
1740148352.693;96;50.00;37457.54
1740148352.742;117;50.00;47866.40
1740148352.792;117;50.00;47866.40
1740148352.842;109;50.00;43906.80
1740148352.892;104;50.00;41642.67
1740148352.943;104;50.00;41642.67
1740148352.993;104;50.00;41378.40
1740148353.144;98;50.00;38292.80
1740148353.194;98;50.00;38292.80
1740148353.244;98;50.00;38292.80
1740148353.294;115;50.00;46997.33
1740148353.344;115;50.00;46997.33
1740148353.394;115;50.00;46997.33
1740148353.444;108;50.00;43603.46
1740148353.494;108;50.00;43603.46
1740148353.544;109;50.00;43702.13
1740148353.594;109;50.00;43702.13
1740148353.644;109;50.00;43702.13
1740148353.694;113;50.00;46086.13
1740148353.745;113;50.00;46086.13
1740148353.794;113;50.00;46086.13
1740148353.844;110;50.00;44326.80
1740148353.894;110;50.00;44326.80
1740148353.944;100;50.00;39674.40
1740148353.995;100;50.00;39674.40
1740148354.044;102;50.00;40422.13
1740148354.094;112;50.00;45157.27
1740148354.144;112;50.00;45157.27
1740148354.195;109;50.00;44009.00
1740148354.344;100;50.00;39395.07
1740148354.394;100;50.00;39395.07
1740148354.444;99;50.00;38789.46
1740148354.495;110;50.00;44312.00
1740148354.544;110;50.00;44312.00
1740148354.595;110;50.00;44312.00
1740148354.644;95;50.00;37043.07
1740148354.694;95;50.00;37043.07
1740148354.745;94;50.00;36690.93
1740148354.794;94;50.00;36690.93
1740148354.894;115;50.00;46727.40
1740148354.944;115;50.00;46727.40
1740148355.145;94;50.00;36692.67
1740148355.195;94;50.00;36692.67
1740148355.244;95;50.00;37007.54
1740148355.294;102;50.00;40361.60
1740148355.344;102;50.00;40361.60
1740148355.444;95;50.00;37122.80
1740148355.495;95;50.00;37122.80
1740148355.544;108;50.00;43445.87
1740148355.595;108;50.00;43445.87
1740148355.644;105;50.00;41907.33
1740148355.695;105;50.00;41907.33
1740148355.745;105;50.00;41907.33
1740148355.946;95;50.00;37166.27
1740148355.996;95;50.00;37166.27
1740148356.047;97;50.00;38009.07
1740148356.097;108;50.00;43422.67
1740148356.147;108;50.00;43422.67
1740148356.347;96;50.00;37651.07
1740148356.398;96;50.00;37651.07
1740148356.447;112;50.00;45387.73
1740148356.497;112;50.00;45387.73
1740148356.548;112;50.00;45387.73
1740148356.598;95;50.00;36803.00
1740148356.647;95;50.00;36803.00
1740148356.697;98;50.00;38234.60
1740148356.747;104;50.00;41579.93
1740148356.798;104;50.00;41579.93
1740148356.848;96;50.00;37346.27
1740148356.898;96;50.00;37346.27
1740148356.948;96;50.00;37346.27
1740148367.445;96;50.00;37717.33
1740148367.495;96;50.00;37717.33
1740148367.545;96;50.00;37669.33
1740148367.596;96;50.00;37669.33
1740148367.647;99;50.00;39049.60
1740148367.696;99;50.00;39049.60
1740148367.796;96;50.00;37470.93
1740148367.847;96;50.00;37470.93
1740148367.897;115;50.00;46882.07
1740148367.947;115;50.00;46882.07
1740148368.347;102;50.00;40374.27
1740148368.397;102;50.00;40374.27
1740148368.447;94;50.00;36675.87
1740148368.497;94;50.00;36675.87
1740148368.599;111;50.00;44793.33
1740148368.649;111;50.00;44793.33
1740148368.699;98;50.00;38484.67
1740148368.748;94;50.00;36588.54
1740148368.799;94;50.00;36588.54
1740148368.849;116;50.00;47221.93
1740148368.899;116;50.00;47221.93
1740148368.950;102;50.00;40353.33
1740148368.999;102;50.00;40353.33
1740148369.050;95;50.00;36996.13
1740148369.100;95;50.00;36996.13
1740148369.300;100;50.00;39220.73
1740148369.350;100;50.00;39220.73
1740148369.602;94;50.00;36546.54
1740148369.651;94;50.00;36653.60
1740148369.703;94;50.00;36653.60
1740148370.006;96;50.00;37265.87
1740148370.056;96;50.00;37265.87
1740148370.106;96;50.00;37718.13
1740148370.157;96;50.00;37718.13
1740148370.207;114;50.00;46235.33
1740148370.257;114;50.00;46235.33
1740148370.307;114;50.00;46235.33
1740148370.357;106;50.00;42293.73
1740148370.407;106;50.00;42293.73
1740148370.457;101;50.00;40150.13
1740148370.507;101;50.00;40150.13
1740148379.580;96;50.00;37267.46
1740148379.630;96;50.00;37267.46
1740148379.679;96;50.00;37261.60
1740148379.730;96;50.00;37261.60
1740148379.780;117;50.00;47847.13
1740148379.830;117;50.00;47939.33
1740148379.880;117;50.00;47939.33
1740148380.080;102;50.00;40682.93
1740148380.130;102;50.00;40682.93
1740148380.180;110;50.00;44232.13
1740148380.230;110;50.00;44232.13
1740148380.330;96;50.00;37523.20
1740148380.380;96;50.00;37523.20
1740148380.430;100;50.00;39638.80
1740148380.480;100;50.00;39638.80
1740148380.530;113;50.00;45746.80
1740148380.581;113;50.00;45834.00
1740148380.630;113;50.00;45834.00
1740148380.681;105;50.00;42118.27
1740148380.731;105;50.00;42118.27
1740148380.781;95;50.00;36919.60
1740148380.831;95;50.00;36919.60
1740148380.881;115;50.00;46962.00
1740148380.931;115;50.00;46962.00
1740148381.081;94;50.00;36597.60
1740148381.132;94;50.00;36597.60
1740148381.181;101;50.00;39824.54
1740148381.233;101;50.00;39824.54
1740148381.282;113;50.00;46076.27
1740148381.332;118;50.00;48317.46
1740148381.383;118;50.00;48317.46
1740148381.533;94;50.00;36669.87
1740148381.582;94;50.00;36669.87
1740148381.683;112;50.00;45351.73
1740148381.732;112;50.00;45351.73
1740148381.782;105;50.00;41806.40
1740148381.834;105;50.00;41806.40
1740148382.134;100;50.00;39355.73
1740148382.183;100;50.00;39355.73
1740148382.235;95;50.00;37010.00
1740148382.284;95;50.00;37010.00
1740148382.335;101;50.00;40102.13
1740148382.384;102;50.00;40435.46
1740148382.434;102;50.00;40435.46
1740148382.484;116;50.00;47337.07
1740148382.535;116;50.00;47337.07
1740148382.584;111;50.00;45063.46
1740148382.634;111;50.00;45063.46
1740148382.684;95;50.00;37103.00
1740148382.734;95;50.00;37103.00
1740148382.935;108;50.00;43304.73
1740148382.984;108;50.00;43304.73
1740148383.034;95;50.00;37034.40
1740148383.284;97;50.00;37793.20
1740148523.904;97;10.00;37724.27
1740148523.951;97;10.00;37724.27
1740148524.001;97;10.00;37724.27
1740148524.051;99;10.00;39166.67
1740148524.101;99;10.00;39166.67
1740148524.151;97;10.00;37907.60
1740148524.202;112;10.00;45201.33
1740148524.251;112;10.00;45201.33
1740148524.301;106;10.00;42612.54
1740148524.352;106;10.00;42612.54
1740148524.401;106;10.00;42612.54
1740148524.451;102;10.00;40510.67
1740148524.501;102;10.00;40510.67
1740148524.551;100;10.00;39436.93
1740148524.601;97;10.00;37953.87
1740148524.652;97;10.00;37953.87
1740148524.702;99;10.00;39199.60
1740148524.752;99;10.00;39199.60
1740148524.802;99;10.00;38903.07
1740148524.952;107;10.00;43058.80
1740148525.002;107;10.00;43058.80
1740148525.053;107;10.00;43058.80
1740148525.103;97;10.00;37735.87
1740148525.153;97;10.00;37735.87
1740148525.203;101;10.00;39844.00
1740148525.253;101;10.00;39844.00
1740148525.303;101;10.00;39844.00
1740148525.353;100;10.00;39320.40
1740148525.403;100;10.00;39320.40
1740148525.453;100;10.00;39320.40
1740148525.503;105;10.00;41773.07
1740148525.553;105;10.00;41773.07
1740148525.603;96;10.00;37655.46
1740148525.653;96;10.00;37655.46
1740148525.703;96;10.00;37655.46
1740148525.753;100;10.00;39665.33
1740148525.803;100;10.00;39665.33
1740148525.853;102;10.00;40631.46
1740148526.003;96;10.00;37675.87
1740148526.053;96;10.00;37675.87
1740148526.103;95;10.00;37091.73
1740148526.153;101;10.00;39715.07
1740148526.203;101;10.00;39715.07
1740148526.254;103;10.00;40833.07
1740148526.304;103;10.00;40833.07
1740148526.354;99;10.00;38714.93
1740148526.404;99;10.00;38799.20
1740148526.453;99;10.00;38799.20
1740148526.504;103;10.00;40774.67
1740148526.553;103;10.00;40774.67
1740148526.603;103;10.00;40774.67
1740148526.654;103;10.00;40707.20
1740148526.707;103;10.00;40707.20
1740148526.755;101;10.00;40118.60
1740148526.805;101;10.00;39859.46
1740148526.855;101;10.00;39859.46
1740148526.904;103;10.00;41128.40
1740148526.955;103;10.00;41128.40
1740148527.005;103;10.00;41128.40
1740148527.306;95;10.00;36888.54
1740148527.355;95;10.00;36888.54
1740148527.557;99;10.00;38932.00
1740148527.606;99;10.00;38932.00
1740148527.657;95;10.00;36819.54
1740148527.806;94;10.00;36713.87
1740148527.857;94;10.00;36713.87
1740148527.907;101;10.00;40016.13
1740148527.957;98;10.00;38388.80
1740148528.006;98;10.00;38388.80
1740148528.057;96;10.00;37456.80
1740148528.106;96;10.00;37456.80
1740148528.156;96;10.00;37456.80
1740148528.207;102;10.00;40267.33
1740148528.257;102;10.00;40267.33
1740148528.307;102;10.00;40267.33
1740148528.357;109;10.00;43751.33
1740148528.407;109;10.00;43751.33
1740148528.457;99;10.00;39135.46
1740148528.507;98;10.00;38710.00
1740148528.557;98;10.00;38710.00
1740148528.607;98;10.00;38587.87
1740148538.335;95;10.00;37137.07
1740148538.385;95;10.00;37137.07
1740148538.435;113;10.00;45913.60
1740148538.485;113;10.00;45913.60
1740148538.535;99;10.00;39083.20
1740148538.586;109;10.00;44131.07
1740148538.635;109;10.00;44131.07
1740148538.686;101;10.00;39817.73
1740148538.735;101;10.00;39817.73
1740148538.835;95;10.00;37015.73
1740148538.885;95;10.00;37015.73
1740148538.936;101;10.00;40112.80
1740148538.986;101;10.00;40112.80
1740148539.136;103;10.00;41100.87
1740148539.186;106;10.00;42498.60
1740148539.235;106;10.00;42498.60
1740148539.285;101;10.00;39961.07
1740148539.336;101;10.00;39961.07
1740148539.435;100;10.00;39465.67
1740148539.485;100;10.00;39465.67
1740148539.536;99;10.00;38993.33
1740148539.586;99;10.00;38993.33
1740148539.637;99;10.00;39006.54
1740148539.687;99;10.00;39006.54
1740148539.736;97;10.00;38208.54
1740148539.786;97;10.00;38208.54
1740148539.838;102;10.00;40313.07
1740148539.887;101;10.00;39764.54
1740148539.937;101;10.00;39764.54
1740148539.987;102;10.00;40446.93
1740148540.038;102;10.00;40446.93
1740148540.087;106;10.00;42339.27
1740148540.137;106;10.00;42339.27
1740148540.187;106;10.00;42339.27
1740148540.238;106;10.00;42504.80
1740148540.287;106;10.00;42504.80
1740148540.338;103;10.00;40930.07
1740148540.387;103;10.00;40930.07
1740148540.437;109;10.00;43988.80
1740148540.488;109;10.00;43988.80
1740148540.538;104;10.00;41557.67
1740148540.588;103;10.00;41095.93
1740148540.638;103;10.00;41095.93
1740148540.688;99;10.00;39145.33
1740148540.738;99;10.00;39145.33
1740148540.787;100;10.00;39309.07
1740148540.838;100;10.00;39309.07
1740148540.889;97;10.00;37916.40
1740148540.939;96;10.00;37469.33
1740148540.988;96;10.00;37469.33
1740148541.038;101;10.00;40029.60
1740148541.089;101;10.00;40029.60
1740148541.138;105;10.00;41971.60
1740148541.188;105;10.00;41971.60
1740148541.240;102;10.00;40541.20
1740148541.289;102;10.00;40541.20
1740148541.339;107;10.00;42922.93
1740148541.389;107;10.00;42922.93
1740148541.441;101;10.00;40038.27
1740148541.491;102;10.00;40477.33
1740148541.541;102;10.00;40477.33
1740148541.592;105;10.00;41921.67
1740148541.642;105;10.00;41921.67
1740148541.742;105;10.00;41797.67
1740148541.792;105;10.00;41797.67
1740148551.350;106;10.00;42578.40
1740148551.399;106;10.00;42578.40
1740148551.450;98;10.00;38336.00
1740148551.500;98;10.00;38336.00
1740148551.549;105;10.00;42078.60
1740148551.600;105;10.00;42078.60
1740148551.650;114;10.00;46184.13
1740148551.701;114;10.00;46184.13
1740148551.750;108;10.00;43547.60
1740148551.801;109;10.00;44088.13
1740148551.851;109;10.00;44088.13
1740148551.901;106;10.00;42335.07
1740148551.951;106;10.00;42335.07
1740148552.001;108;10.00;43325.33
1740148552.051;108;10.00;43325.33
1740148552.101;94;10.00;36623.13
1740148552.151;104;10.00;41314.80
1740148552.201;104;10.00;41314.80
1740148552.251;97;10.00;37920.54
1740148552.301;97;10.00;37920.54
1740148552.401;101;10.00;39818.40
1740148552.451;101;10.00;39818.40
1740148552.501;104;10.00;41228.00
1740148552.551;107;10.00;43009.80
1740148552.601;107;10.00;43009.80
1740148552.651;104;10.00;41544.54
1740148552.701;104;10.00;41544.54
1740148552.751;107;10.00;42997.33
1740148552.801;107;10.00;42997.33
1740148552.851;109;10.00;43759.00
1740148552.901;113;10.00;45928.00
1740148552.952;113;10.00;45928.00
1740148553.001;103;10.00;40986.27
1740148553.051;103;10.00;40986.27
1740148553.201;95;10.00;36832.80
1740148553.351;101;10.00;39850.40
1740148553.401;101;10.00;39850.40
1740148553.451;105;10.00;41703.20
1740148553.502;102;10.00;40655.20
1740148553.552;102;10.00;40655.20
1740148553.602;99;10.00;38723.20
1740148553.652;99;10.00;38723.20
1740148553.701;98;10.00;38363.20
1740148553.751;98;10.00;38363.20
1740148553.802;100;10.00;39635.60
1740148553.852;101;10.00;39873.60
1740148553.902;101;10.00;39873.60
1740148553.952;111;10.00;45140.00
1740148554.002;111;10.00;45140.00
1740148554.052;96;10.00;37486.67
1740148554.102;96;10.00;37486.67
1740148554.152;103;10.00;40703.33
1740148554.202;103;10.00;40703.33
1740148554.252;103;10.00;40703.33
1740148554.302;99;10.00;39050.40
1740148554.352;99;10.00;39050.40
1740148554.402;98;10.00;38277.60
1740148554.452;96;10.00;37593.07
1740148554.502;96;10.00;37593.07
1740148554.552;102;10.00;40690.80
1740148554.602;102;10.00;40690.80
1740148554.652;99;10.00;38919.60
1740148554.702;99;10.00;38919.60
1740148554.752;102;10.00;40620.27
1740148697.498;97;30.00;38138.00
1740148697.548;98;30.00;38451.20
1740148697.599;98;30.00;38451.20
1740148697.649;97;30.00;37997.60
1740148697.699;97;30.00;37997.60
1740148697.749;97;30.00;37997.60
1740148697.799;104;30.00;41628.40
1740148697.850;104;30.00;41628.40
1740148697.900;117;30.00;47771.87
1740148697.949;117;30.00;47771.87
1740148697.999;117;30.00;47771.87
1740148698.049;96;30.00;37314.33
1740148698.105;96;30.00;37314.33
1740148698.303;98;30.00;38290.27
1740148698.353;98;30.00;38290.27
1740148698.404;96;30.00;37682.40
1740148698.454;96;30.00;37538.13
1740148698.503;96;30.00;37538.13
1740148698.705;96;30.00;37622.07
1740148698.755;96;30.00;37622.07
1740148698.805;120;30.00;49194.40
1740148698.855;113;30.00;45842.33
1740148698.905;113;30.00;45842.33
1740148698.955;111;30.00;45118.67
1740148699.005;111;30.00;45118.67
1740148699.304;95;30.00;36913.46
1740148699.354;95;30.00;36913.46
1740148699.404;96;30.00;37451.33
1740148699.455;114;30.00;46588.13
1740148699.505;114;30.00;46588.13
1740148699.555;97;30.00;38187.27
1740148699.605;97;30.00;38187.27
1740148699.655;106;30.00;42620.93
1740148699.906;100;30.00;39561.33
1740148699.957;96;30.00;37376.54
1740148700.007;96;30.00;37376.54
1740148700.056;107;30.00;43142.54
1740148700.106;107;30.00;43142.54
1740148700.156;107;30.00;43142.54
1740148700.206;112;30.00;45169.20
1740148700.256;112;30.00;45169.20
1740148700.306;118;30.00;48268.54
1740148700.357;100;30.00;39522.07
1740148700.406;100;30.00;39522.07
1740148700.457;111;30.00;44665.87
1740148700.508;111;30.00;44665.87
1740148700.558;111;30.00;44665.87
1740148700.607;109;30.00;43824.93
1740148700.657;109;30.00;43824.93
1740148700.858;98;30.00;38245.33
1740148700.907;98;30.00;38245.33
1740148700.957;107;30.00;43050.13
1740148701.007;107;30.00;43050.13
1740148701.057;107;30.00;43050.13
1740148701.108;111;30.00;44993.20
1740148701.158;111;30.00;44993.20
1740148701.208;97;30.00;37794.33
1740148701.259;105;30.00;42129.07
1740148701.308;105;30.00;42129.07
1740148701.359;108;30.00;43356.27
1740148701.408;108;30.00;43356.27
1740148701.459;108;30.00;43356.27
1740148711.276;94;30.00;36594.40
1740148711.326;94;30.00;36594.40
1740148711.376;96;30.00;37423.73
1740148711.427;114;30.00;46548.93
1740148711.476;114;30.00;46548.93
1740148711.628;115;30.00;46875.33
1740148711.679;99;30.00;38767.13
1740148711.729;99;30.00;38767.13
1740148711.780;105;30.00;41817.54
1740148711.929;94;30.00;36652.93
1740148711.979;94;30.00;36652.93
1740148712.080;120;30.00;49134.54
1740148712.129;120;30.00;49134.54
1740148712.179;104;30.00;41223.27
1740148712.230;104;30.00;41223.27
1740148712.281;104;30.00;41223.27
1740148712.331;114;30.00;46344.40
1740148712.380;114;30.00;46344.40
1740148712.431;110;30.00;44622.67
1740148712.480;110;30.00;44622.67
1740148712.530;110;30.00;44224.27
1740148712.581;117;30.00;48056.40
1740148712.630;117;30.00;48056.40
1740148712.935;102;30.00;40288.67
1740148712.984;102;30.00;40413.46
1740148713.034;102;30.00;40413.46
1740148713.234;96;30.00;37606.46
1740148713.284;96;30.00;37606.46
1740148713.334;112;30.00;45169.73
1740148713.384;112;30.00;45169.73
1740148713.434;112;30.00;45169.73
1740148713.484;110;30.00;44567.93
1740148713.534;110;30.00;44567.93
1740148713.584;118;30.00;48620.60
1740148713.984;94;30.00;36546.27
1740148714.034;94;30.00;36546.27
1740148714.084;98;30.00;38288.67
1740148714.134;119;30.00;48739.20
1740148714.185;119;30.00;48739.20
1740148714.535;110;30.00;44448.67
1740148714.585;110;30.00;44448.67
1740148714.635;98;30.00;38673.73
1740148714.685;98;30.00;38673.73
1740148714.734;98;30.00;38673.73
1740148714.786;113;30.00;45778.00
1740148714.836;113;30.00;45778.00
1740148714.886;116;30.00;47496.54
1740148715.037;99;30.00;38779.73
1740148715.087;99;30.00;38779.73
1740148715.137;94;30.00;36652.40
1740148715.287;96;30.00;37362.13
1740148715.337;96;30.00;37362.13
1740148715.387;96;30.00;37362.13
1740148715.438;116;30.00;47384.13
1740148715.487;116;30.00;47384.13
1740148715.537;96;30.00;37663.33
1740148715.587;99;30.00;38738.33
1740148715.637;99;30.00;38738.33
1740148715.687;97;30.00;37763.20
1740148715.738;97;30.00;37763.20
1740148715.788;97;30.00;37763.20
1740148725.003;95;30.00;36961.73
1740148725.053;95;30.00;36961.73
1740148725.104;103;30.00;41148.93
1740148725.154;103;30.00;41148.93
1740148725.203;112;30.00;45203.40
1740148725.254;112;30.00;45203.40
1740148725.304;112;30.00;45203.40
1740148725.353;111;30.00;45009.60
1740148725.404;111;30.00;45009.60
1740148725.454;101;30.00;39798.93
1740148725.505;101;30.00;39798.93
1740148725.554;96;30.00;37451.46
1740148725.605;96;30.00;37451.46
1740148725.654;95;30.00;36922.13
1740148725.805;98;30.00;38568.80
1740148725.855;98;30.00;38568.80
1740148725.905;96;30.00;37262.54
1740148725.954;96;30.00;37262.54
1740148726.004;119;30.00;49036.40
1740148726.256;95;30.00;37096.80
1740148726.306;95;30.00;37096.80
1740148726.356;98;30.00;38500.27
1740148726.406;98;30.00;38500.27
1740148726.456;113;30.00;46051.87
1740148726.506;101;30.00;40054.40
1740148726.556;101;30.00;40054.40
1740148726.756;95;30.00;36843.73
1740148726.807;95;30.00;36843.73
1740148726.856;118;30.00;48414.60
1740148726.906;118;30.00;48414.60
1740148726.957;100;30.00;39348.40
1740148727.007;100;30.00;39348.40
1740148727.057;105;30.00;41996.80
1740148727.107;105;30.00;41996.80
1740148727.156;103;30.00;40751.46
1740148727.207;104;30.00;41576.54
1740148727.256;104;30.00;41576.54
1740148727.307;112;30.00;45201.20
1740148727.357;112;30.00;45201.20
1740148727.407;99;30.00;38837.87
1740148727.457;100;30.00;39623.73
1740148727.507;100;30.00;39623.73
1740148727.557;113;30.00;45984.00
1740148727.607;113;30.00;45984.00
1740148727.758;101;30.00;39957.00
1740148727.809;101;30.00;39957.00
1740148727.859;119;30.00;48998.54
1740148727.909;105;30.00;42120.80
1740148727.959;105;30.00;42120.80
1740148728.009;110;30.00;44238.93
1740148728.059;110;30.00;44238.93
1740148728.109;114;30.00;46395.67
1740148728.159;114;30.00;46395.67
1740148728.209;101;30.00;39972.00
1740148728.258;98;30.00;38542.33
1740148728.309;98;30.00;38542.33
1740148728.359;115;30.00;46828.67
1740148728.409;115;30.00;46828.67
1740148728.459;116;30.00;47455.13
1740148728.509;116;30.00;47455.13
1740148728.660;114;30.00;46359.46
1740148728.710;97;30.00;37795.73
1740148728.760;97;30.00;37795.73
1740148728.910;95;30.00;37218.00
1740148728.960;97;30.00;38004.67
1740148729.010;97;30.00;38004.67
1740148729.059;117;30.00;47699.07
1740148729.110;117;30.00;47699.07
1740148729.160;101;30.00;40162.13
1740148729.210;101;30.00;40162.13
1740149043.358;200;18.30;36685.87
1740149043.408;200;18.30;36685.87
1740149043.458;200;22.58;47883.27
1740149043.508;200;22.58;47883.27
1740149043.558;200;22.58;47883.27
1740149043.608;200;21.42;44844.00
1740149043.659;200;21.42;44844.00
1740149043.710;200;20.98;43695.07
1740149043.759;200;20.98;43695.07
1740149043.810;200;19.01;38550.67
1740149043.960;200;19.92;40917.87
1740149044.010;200;19.92;40917.87
1740149044.059;200;22.71;48217.73
1740149044.109;200;22.71;48217.73
1740149044.159;200;22.71;48217.73
1740149044.210;200;20.58;42647.40
1740149044.260;200;20.58;42647.40
1740149044.309;200;21.69;45564.13
1740149044.359;200;21.69;45564.13
1740149044.510;200;18.55;37349.60
1740149044.560;200;18.55;37349.60
1740149044.611;200;19.02;38565.60
1740149044.661;200;21.74;45691.07
1740149044.711;200;21.74;45691.07
1740149044.761;200;19.76;40512.27
1740149044.912;200;19.65;40210.93
1740149044.962;200;19.65;40210.93
1740149045.012;200;21.02;43808.00
1740149045.062;200;21.02;43808.00
1740149045.112;200;21.02;43808.00
1740149045.162;200;22.98;48935.33
1740149045.212;200;22.98;48935.33
1740149045.263;200;22.05;46491.13
1740149045.313;200;22.05;46491.13
1740149045.363;200;21.25;44393.07
1740149045.512;200;19.54;39934.67
1740149045.563;200;19.54;39934.67
1740149045.612;200;19.29;39284.46
1740149045.663;200;19.29;39284.46
1740149045.713;200;19.05;38656.67
1740149045.763;200;20.14;41495.20
1740149045.813;200;20.14;41495.20
1740149045.913;200;22.05;46509.73
1740149045.964;200;22.05;46509.73
1740149046.014;200;19.23;39120.33
1740149046.064;200;19.23;39120.33
1740149046.265;200;19.87;40792.00
1740149046.314;200;19.87;40792.00
1740149046.465;200;21.00;43741.20
1740149046.514;200;18.50;37216.93
1740149046.565;200;18.50;37216.93
1740149046.614;200;22.68;48150.93
1740149046.665;200;22.68;48150.93
1740149046.714;200;22.63;48003.60
1740149046.765;200;22.63;48003.60
1740149046.815;200;22.26;47056.93
1740149046.866;200;22.09;46603.46
1740149046.916;200;22.09;46603.46
1740149046.967;200;21.00;43742.54
1740149047.017;200;21.00;43742.54
1740149047.068;200;21.00;43742.54
1740149047.118;200;21.78;45779.07
1740149047.168;200;21.78;45779.07
1740149047.218;200;22.78;48408.54
1740149047.268;200;22.78;48408.54
1740149057.196;200;18.74;37847.20
1740149057.247;200;18.74;37847.20
1740149057.297;200;22.40;47406.93
1740149057.347;200;22.40;47406.93
1740149057.397;200;20.59;42688.40
1740149057.447;200;20.59;42688.40
1740149057.496;200;20.59;42688.40
1740149057.697;200;19.43;39652.93
1740149057.747;200;19.43;39652.93
1740149057.797;200;21.30;44546.40
1740149057.848;200;21.30;44546.40
1740149057.897;200;21.30;44546.40
1740149057.947;200;22.99;48958.60
1740149057.997;200;22.99;48958.60
1740149058.047;200;21.15;44146.40
1740149058.098;200;21.11;44030.54
1740149058.147;200;21.11;44030.54
1740149058.198;200;20.06;41304.93
1740149058.247;200;20.06;41304.93
1740149058.297;200;22.02;46427.87
1740149058.348;200;22.49;47652.54
1740149058.398;200;22.49;47652.54
1740149058.598;200;19.17;38957.07
1740149058.648;200;19.17;38957.07
1740149058.698;200;19.18;38989.73
1740149058.748;200;19.18;38989.73
1740149058.798;200;19.18;38989.73
1740149058.848;200;19.66;40236.13
1740149058.899;200;19.66;40236.13
1740149059.149;200;20.07;41324.80
1740149059.199;200;20.07;41324.80
1740149059.249;200;20.07;41324.80
1740149059.299;200;19.49;39799.20
1740149059.349;200;19.49;39799.20
1740149059.398;200;18.71;37761.87
1740149059.449;200;18.71;37761.87
1740149059.499;200;18.71;37761.87
1740149059.549;200;18.39;36935.73
1740149059.599;200;18.39;36935.73
1740149059.649;200;19.33;39394.13
1740149059.699;200;19.20;39039.73
1740149059.749;200;19.20;39039.73
1740149059.800;200;20.61;42728.54
1740149059.850;200;20.61;42728.54
1740149059.899;200;18.34;36784.13
1740149059.949;200;18.34;36784.13
1740149059.999;200;18.34;36784.13
1740149060.050;200;21.94;46196.73
1740149060.099;200;21.94;46196.73
1740149060.149;200;21.94;46196.73
1740149060.199;200;22.25;47022.60
1740149060.250;200;22.25;47022.60
1740149060.451;200;20.79;43197.46
1740149060.501;200;20.79;43197.46
1740149060.550;200;20.04;41234.27
1740149060.600;200;18.54;37322.27
1740149060.650;200;18.54;37322.27
1740149060.700;200;22.02;46415.13
1740149060.750;200;22.02;46415.13
1740149060.801;200;18.34;36790.80
1740149060.850;200;18.31;36723.46
1740149060.901;200;18.31;36723.46
1740149060.951;200;19.66;40245.87
1740149061.000;200;19.31;39333.07
1740149061.051;200;19.31;39333.07
1740149061.101;200;20.83;43304.13
1740149061.151;200;20.83;43304.13
1740149061.200;200;20.83;43304.13
1740149061.350;200;20.95;43610.93
1740149061.401;200;18.83;38088.80
1740149061.451;200;18.83;38088.80
1740149061.501;200;22.18;46840.54
1740149061.550;200;22.18;46840.54
1740149061.601;200;18.31;36721.40
1740149061.901;200;19.20;39037.87
1740149061.951;200;19.20;39037.87
1740149062.002;200;19.44;39681.46
1740149062.051;200;19.99;41116.00
1740149062.101;200;19.99;41116.00
1740149071.022;200;18.82;38057.80
1740149071.072;200;18.82;38057.80
1740149071.122;200;19.14;38898.80
1740149071.172;200;19.14;38898.80
1740149071.222;200;20.71;43000.00
1740149071.272;200;19.46;39719.46
1740149071.323;200;19.46;39719.46
1740149071.372;200;19.18;38996.00
1740149071.422;200;19.18;38996.00
1740149071.473;200;18.89;38238.40
1740149071.522;200;19.57;40019.73
1740149071.572;200;19.57;40019.73
1740149071.623;200;22.83;48534.27
1740149071.673;200;22.83;48534.27
1740149071.723;200;19.06;38670.54
1740149071.773;200;19.06;38670.54
1740149071.823;200;18.37;36869.60
1740149071.874;200;18.37;36869.60
1740149071.923;200;22.63;48011.07
1740149071.974;200;22.78;48400.54
1740149072.024;200;22.78;48400.54
1740149072.074;200;20.18;41612.00
1740149072.124;200;20.18;41612.00
1740149072.173;200;21.71;45602.80
1740149072.224;200;21.71;45602.80
1740149072.324;200;18.35;36832.54
1740149072.377;200;18.35;36832.54
1740149072.423;200;18.42;36995.87
1740149072.474;200;18.42;36995.87
1740149072.523;200;19.39;39539.20
1740149072.574;200;19.39;39539.20
1740149072.774;200;21.09;43978.27
1740149072.824;200;21.09;43978.27
1740149072.874;200;19.87;40802.40
1740149072.924;200;19.87;40802.40
1740149072.974;200;19.35;39437.60
1740149073.124;200;18.63;37565.46
1740149073.174;200;18.63;37565.46
1740149073.224;200;19.92;40931.93
1740149073.274;200;19.92;40931.93
1740149073.474;200;18.56;37364.54
1740149073.524;200;18.56;37364.54
1740149073.574;200;21.12;44075.33
1740149073.623;200;21.12;44075.33
1740149073.677;200;19.48;39766.80
1740149073.826;200;19.22;39089.73
1740149073.876;200;19.22;39089.73
1740149073.926;200;19.88;40831.00
1740149073.976;200;19.88;40831.00
1740149074.026;200;23.09;49207.73
1740149074.076;200;23.09;49207.73
1740149074.126;200;20.20;41662.07
1740149074.276;200;19.21;39064.73
1740149074.326;200;19.21;39064.73
1740149074.376;200;23.32;49807.73
1740149074.426;200;23.32;49807.73
1740149074.526;200;20.12;41459.73
1740149074.576;200;20.12;41459.73
1740149074.627;200;18.98;38480.46
1740149074.678;200;18.98;38480.46
1740149074.728;200;22.08;46577.00
1740149074.778;200;22.08;46577.00
1740149074.978;200;18.51;37230.93
1740149075.027;200;18.51;37230.93
1740149075.078;200;22.75;48331.46
1740149188.580;300;19.32;39366.80
1740149188.630;300;19.32;39366.80
1740149188.680;300;19.32;39366.80
1740149188.781;300;19.12;38822.67
1740149188.832;300;19.12;38822.67
1740149188.881;300;21.45;44938.54
1740149188.932;300;21.45;44938.54
1740149188.981;300;22.10;46624.40
1740149189.032;300;20.35;42046.54
1740149189.081;300;20.35;42046.54
1740149189.132;300;20.12;41462.80
1740149189.182;300;20.12;41462.80
1740149189.232;300;20.12;41462.80
1740149189.282;300;22.57;47867.20
1740149189.332;300;22.57;47867.20
1740149189.382;300;18.48;37163.46
1740149189.432;300;18.48;37163.46
1740149189.483;300;22.02;46409.40
1740149189.533;300;19.54;39936.40
1740149189.583;300;19.54;39936.40
1740149189.633;300;21.54;45174.13
1740149189.683;300;21.54;45174.13
1740149189.732;300;21.54;45174.13
1740149189.883;300;20.22;41703.33
1740149189.933;300;20.42;42239.87
1740149189.983;300;20.42;42239.87
1740149190.034;300;22.32;47209.33
1740149190.084;300;22.32;47209.33
1740149190.133;300;21.45;44926.80
1740149190.284;300;18.59;37460.00
1740149190.334;300;18.59;37460.00
1740149190.384;300;18.59;37460.00
1740149190.434;300;19.09;38757.20
1740149190.484;300;19.09;38757.20
1740149190.684;300;19.18;38990.27
1740149190.734;300;19.18;38990.27
1740149190.784;300;19.33;39379.20
1740149190.934;300;18.46;37117.07
1740149190.984;300;19.20;39046.67
1740149191.035;300;19.20;39046.67
1740149191.184;300;19.34;39400.27
1740149191.234;300;18.96;38422.93
1740149191.285;300;18.96;38422.93
1740149191.335;300;22.84;48565.20
1740149191.385;300;22.84;48565.20
1740149191.434;300;22.84;48565.20
1740149191.484;300;22.59;47919.20
1740149191.534;300;22.59;47919.20
1740149191.736;300;20.74;43060.13
1740149191.786;300;20.74;43060.13
1740149191.836;300;18.75;37856.80
1740149191.885;300;18.75;37856.80
1740149191.936;300;18.63;37540.46
1740149191.986;300;18.26;36593.87
1740149192.043;300;18.26;36593.87
1740149192.086;300;22.58;47880.46
1740149192.136;300;22.58;47880.46
1740149192.186;300;22.45;47549.07
1740149192.236;300;22.45;47549.07
1740149192.286;300;20.01;41151.93
1740149192.337;300;20.83;43311.00
1740149192.387;300;20.83;43311.00
1740149192.487;300;18.99;38498.67
1740149192.537;300;18.99;38498.67
1740149192.587;300;18.56;37377.73
1740149192.638;300;18.56;37377.73
1740149192.788;300;18.42;36994.40
1740149192.839;300;18.42;36994.40
1740149192.889;300;21.74;45697.67
1740149192.940;300;21.74;45697.67
1740149192.989;300;19.04;38619.87
1740149201.990;300;18.78;37942.00
1740149202.039;300;18.78;37942.00
1740149202.089;300;18.34;36792.80
1740149202.239;300;19.45;39695.46
1740149202.289;300;19.45;39695.46
1740149202.340;300;22.03;46441.20
1740149202.389;300;22.03;46441.20
1740149202.440;300;18.78;37935.73
1740149202.589;300;20.81;43266.60
1740149202.644;300;20.81;43266.60
1740149202.792;300;18.86;38152.80
1740149202.843;300;18.86;38152.80
1740149202.892;300;19.15;38904.54
1740149202.943;300;20.42;42236.93
1740149202.993;300;20.42;42236.93
1740149203.043;300;22.18;46826.80
1740149203.093;300;22.18;46826.80
1740149203.193;300;20.61;42719.13
1740149203.242;300;20.61;42719.13
1740149203.293;300;19.89;40837.46
1740149203.342;300;19.89;40837.46
1740149203.693;300;18.47;37130.67
1740149203.742;300;19.30;39309.80
1740149203.792;300;19.30;39309.80
1740149203.842;300;21.49;45043.46
1740149203.893;300;21.49;45043.46
1740149204.093;300;18.53;37303.73
1740149204.143;300;18.53;37303.73
1740149204.193;300;19.99;41109.60
1740149204.243;300;18.46;37112.27
1740149204.293;300;18.46;37112.27
1740149204.343;300;22.24;47000.87
1740149204.393;300;21.16;44161.87
1740149204.443;300;21.16;44161.87
1740149204.493;300;21.58;45271.60
1740149204.542;300;21.58;45271.60
1740149204.593;300;20.20;41666.40
1740149204.642;300;20.20;41666.40
1740149204.694;300;22.36;47313.07
1740149204.745;300;22.36;47313.07
1740149204.795;300;21.65;45439.33
1740149204.845;300;21.65;45439.33
1740149204.895;300;21.65;45439.33
1740149204.945;300;21.29;44509.20
1740149204.994;300;21.29;44509.20
1740149205.044;300;21.63;45405.40
1740149205.094;300;21.63;45405.40
1740149205.144;300;21.63;45405.40
1740149205.195;300;22.46;47577.33
1740149205.244;300;22.46;47577.33
1740149205.296;300;18.77;37909.60
1740149205.346;300;18.77;37909.60
1740149205.546;300;20.65;42829.27
1740149205.596;300;20.65;42829.27
1740149205.646;300;20.72;43025.87
1740149205.695;300;20.72;43025.87
1740149205.746;300;22.20;46899.60
1740149205.796;300;22.20;46899.60
1740149205.846;300;18.82;38059.87
1740149205.896;300;20.19;41640.93
1740149205.946;300;20.19;41640.93
1740149215.086;300;19.40;39559.73
1740149215.137;300;19.40;39559.73
1740149215.187;300;19.19;39013.20
1740149215.237;300;21.00;43746.27
1740149215.287;300;21.00;43746.27
1740149215.337;300;22.28;47085.73
1740149215.387;300;22.28;47085.73
1740149215.437;300;19.67;40266.54
1740149215.487;300;19.67;40266.54
1740149215.687;300;20.89;43450.54
1740149215.738;300;20.89;43450.54
1740149215.788;300;18.92;38323.73
1740149215.839;300;18.92;38323.73
1740149215.889;300;21.86;45987.46
1740149215.939;300;21.86;45987.46
1740149216.039;300;22.48;47612.93
1740149216.089;300;22.48;47612.93
1740149216.140;300;18.58;37420.27
1740149216.189;300;18.58;37420.27
1740149216.340;300;22.34;47252.73
1740149216.389;300;19.11;38812.40
1740149216.440;300;19.11;38812.40
1740149216.591;300;19.26;39192.54
1740149216.640;300;19.26;39192.54
1740149216.690;300;18.47;37124.00
1740149216.740;300;18.43;37043.07
1740149216.790;300;18.43;37043.07
1740149216.840;300;18.38;36909.93
1740149216.890;300;18.38;36909.93
1740149216.940;300;19.15;38919.60
1740149216.990;300;19.15;38919.60
1740149217.090;300;22.48;47632.33
1740149217.140;300;22.48;47632.33
1740149217.190;300;21.73;45653.20
1740149217.241;300;21.73;45653.20
1740149217.291;300;18.94;38362.80
1740149217.340;300;18.94;38362.80
1740149217.390;300;20.97;43664.00
1740149217.440;300;20.97;43664.00
1740149217.490;300;20.97;43664.00
1740149217.541;300;22.55;47817.33
1740149217.591;300;22.55;47817.33
1740149217.641;300;20.51;42477.07
1740149217.690;300;20.51;42477.07
1740149217.791;300;20.42;42226.67
1740149217.840;300;20.42;42226.67
1740149217.891;300;19.62;40135.27
1740149217.940;300;19.62;40135.27
1740149218.091;300;18.47;37137.46
1740149218.141;300;18.47;37137.46
1740149218.191;300;18.38;36907.60
1740149218.240;300;19.85;40741.87
1740149218.291;300;19.85;40741.87
1740149218.341;300;18.56;37378.40
1740149218.391;300;18.56;37378.40
1740149218.441;300;22.78;48409.73
1740149218.491;300;22.78;48409.73
1740149218.541;300;18.81;38030.67
1740149218.591;300;18.81;38030.67
1740149218.641;300;18.76;37890.00
1740149218.691;300;19.43;39639.07
1740149218.742;300;19.43;39639.07
