UnixTimestamp;Microseconds;MilliAmpere;BaseValue
1725017505.329;500;1.00
1725017505.377;500;1.00
1725017505.426;500;1.00
1725017505.477;500;1.00
1725017505.528;500;1.00
1725017505.577;500;1.00
1725017505.628;500;1.00
1725017505.677;500;1.00
1725017505.728;500;1.00
1725017505.777;500;1.00
1725017505.827;500;1.00
1725017505.877;500;1.00
1725017505.927;500;1.00
1725017505.978;500;1.00
1725017506.027;500;1.00
1725017506.078;500;1.00
1725017506.127;500;1.00
1725017506.178;500;1.00
1725017506.227;500;1.00
1725017506.278;500;1.00
1725017506.327;500;1.00
1725017506.378;500;1.00
1725017510.474;1;40.00
1725017510.525;1;40.00
1725017510.575;1;40.00
1725017510.625;1;40.00
1725017510.677;1;40.00
1725017510.726;1;40.00
1725017510.777;1;40.00
1725017510.826;1;40.00
1725017510.876;1;40.00
1725017510.927;1;40.00
1725017510.977;1;40.00
1725017511.027;1;40.00
1725017511.077;1;40.00
1725017511.126;1;40.00
1725017511.177;1;40.00
1725017511.228;1;40.00
1725017511.277;1;40.00
1725017511.327;1;40.00
1725017511.377;1;40.00
1725017511.428;1;40.00
1725017511.477;1;40.00
1725017725.691;350;21.26;33941.27
1725017725.740;350;21.27;33944.20
1725017725.791;350;21.27;33944.20
1725017725.840;350;21.27;33944.20
1725017725.891;350;21.27;33944.20
1725017725.941;350;22.79;35023.87
1725017725.991;350;23.02;35183.00
1725017726.041;350;23.02;35183.00
1725017726.090;350;23.02;35183.00
1725017726.142;350;23.02;35183.00
1725017726.191;350;27.69;38483.27
1725017726.242;350;27.14;38088.80
1725017726.292;350;27.66;38461.33
1725017726.342;350;22.82;35043.07
1725017726.392;350;22.82;35043.07
1725017726.441;350;22.82;35043.07
1725017726.492;350;26.93;37946.07
1725017726.542;350;27.80;38554.87
1725017726.592;350;22.01;34467.87
1725017726.642;350;22.01;34467.87
1725017726.691;350;22.01;34467.87
1725017726.743;350;22.01;34467.87
1725017726.793;350;27.79;38551.27
1725017726.843;350;26.51;37644.40
1725017726.894;350;26.51;37644.40
1725017726.944;350;26.51;37644.40
1725017726.993;350;26.51;37644.40
1725017727.044;350;24.28;36070.87
1725017727.094;350;27.74;38518.54
1725017727.143;350;27.70;38484.40
1725017727.193;350;27.70;38484.40
1725017727.244;350;27.70;38484.40
1725017727.294;350;27.80;38556.46
1725017727.344;350;25.11;36660.00
1725017727.395;350;25.11;36660.00
1725017727.444;350;25.11;36660.00
1725017727.495;350;25.11;36660.00
1725017727.544;350;23.23;35331.00
1725017727.595;350;27.38;38263.80
1725017727.645;350;27.59;38408.00
1725017727.695;350;27.59;38408.00
1725017727.745;350;27.59;38408.00
1725017727.796;350;21.46;34079.67
1725017727.846;350;26.04;37314.73
1725017727.896;350;26.09;37347.87
1725017727.946;350;26.09;37347.87
1725017727.996;350;26.09;37347.87
1725017728.045;350;26.09;37347.87
1725017728.096;350;21.39;34034.20
1725017728.145;350;21.35;34000.87
1725017728.196;350;23.33;35398.33
1725017728.246;350;21.12;33838.80
1725017728.296;350;21.12;33838.80
1725017728.346;350;21.12;33838.80
1725017728.396;350;23.09;35232.87
1725017728.447;350;22.37;34724.93
1725017728.497;350;21.85;34357.73
1725017728.547;350;21.85;34357.73
1725017728.597;350;21.85;34357.73
1725017728.647;350;21.85;34357.73
1725017728.697;350;25.06;36620.67
1725017728.748;350;22.17;34581.73
1725017728.797;350;23.36;35420.07
1725017728.847;350;24.36;36132.13
1725017728.897;350;24.36;36132.13
1725017728.947;350;24.36;36132.13
1725017728.997;350;25.18;36708.73
1725017729.047;350;24.56;36272.67
1725017729.098;350;24.57;36275.60
1725017729.147;350;23.00;35170.54
1725017729.198;350;23.00;35170.54
1725017729.247;350;23.00;35170.54
1725017729.298;350;21.21;33904.87
1725017729.348;350;23.05;35203.73
1725017729.398;350;21.77;34300.54
1725017729.448;350;21.77;34300.54
1725017729.498;350;21.77;34300.54
1725017729.549;350;21.77;34300.54
1725017729.598;350;27.21;38144.67
1725017729.649;350;27.34;38235.27
1725017729.699;350;27.34;38235.27
1725017729.749;350;27.34;38235.27
1725017729.798;350;27.34;38235.27
1725017729.849;350;27.82;38570.33
1725017729.899;350;25.00;36581.27
1725017729.949;350;23.31;35386.46
1725017729.999;350;24.69;36360.33
1725017730.049;350;24.69;36360.33
1725017730.099;350;24.69;36360.33
1725017730.149;350;25.91;37223.67
1725017730.199;350;21.67;34228.73
1725017730.248;350;21.00;33756.00
1725017730.298;350;21.23;33916.27
1725017730.348;350;21.23;33916.27
1725017730.399;350;21.23;33916.27
1725017730.449;350;23.52;35538.40
1725017730.499;350;27.69;38478.67
1725017730.549;350;27.47;38327.13
1725017730.599;350;27.47;38327.13
1725017730.650;350;27.47;38327.13
1725017730.700;350;27.47;38327.13
1725017730.750;350;27.95;38666.27
1725017730.801;350;24.97;36556.60
1725017730.850;350;25.60;37005.33
1725017730.900;350;26.23;37450.00
1725017730.950;350;22.81;35033.80
1725017731.000;350;22.81;35033.80
1725017731.050;350;22.81;35033.80
1725017731.100;350;25.08;36637.87
1725017731.150;350;22.27;34651.67
1725017731.200;350;22.33;34694.87
1725017731.250;350;27.71;38495.20
1725017731.300;350;27.71;38495.20
1725017731.350;350;27.71;38495.20
1725017731.400;350;27.99;38690.60
1725017731.451;350;23.80;35731.33
1725017731.501;350;27.64;38446.40
1725017731.551;350;27.47;38326.93
1725017731.601;350;27.47;38326.93
1725017731.651;350;27.47;38326.93
1725017731.701;350;27.17;38113.13
1725017731.751;350;26.21;37433.33
1725017731.801;350;25.97;37267.93
1725017731.851;350;25.97;37267.93
1725017731.901;350;25.97;37267.93
1725017731.951;350;26.47;37621.80
1725017732.002;350;21.59;34172.73
1725017732.052;350;27.79;38551.13
1725017732.102;350;27.79;38551.13
1725017732.152;350;27.79;38551.13
1725017732.203;350;27.79;38551.13
1725017732.252;350;27.55;38379.73
1725017732.303;350;21.78;34307.46
1725017732.353;350;27.77;38533.33
1725017732.404;350;27.77;38533.33
1725017732.453;350;27.77;38533.33
1725017732.503;350;24.50;36228.87
1725017732.553;350;21.21;33902.27
1725017732.603;350;21.21;33902.27
1725017732.653;350;21.21;33902.27
1725017732.704;350;21.21;33902.27
1725017732.753;350;27.71;38493.07
1725017732.803;350;27.46;38315.73
1725017747.406;350;20.97;33736.93
1725017747.657;350;21.45;34077.73
1725017747.707;350;21.45;34077.73
1725017747.757;350;21.45;34077.73
1725017747.808;350;21.45;34077.73
1725017747.858;350;25.03;36600.67
1725017747.908;350;23.17;35290.87
1725017747.957;350;23.17;35290.87
1725017748.008;350;23.17;35290.87
1725017748.058;350;23.71;35672.27
1725017748.108;350;24.52;36241.60
1725017748.158;350;23.19;35300.00
1725017748.208;350;23.19;35300.00
1725017748.258;350;23.19;35300.00
1725017748.308;350;23.35;35418.40
1725017748.358;350;25.08;36640.87
1725017748.409;350;23.00;35169.40
1725017748.459;350;23.00;35169.40
1725017748.509;350;23.00;35169.40
1725017748.559;350;27.52;38362.40
1725017748.609;350;27.79;38549.73
1725017748.659;350;27.63;38434.93
1725017748.709;350;27.63;38434.93
1725017748.759;350;27.63;38434.93
1725017748.814;350;27.63;38434.93
1725017748.859;350;27.33;38228.54
1725017748.910;350;27.07;38044.20
1725017748.959;350;22.89;35094.00
1725017749.009;350;22.89;35094.00
1725017749.060;350;22.89;35094.00
1725017749.109;350;21.43;34059.73
1725017749.161;350;21.34;33997.80
1725017749.211;350;27.78;38546.87
1725017749.261;350;27.78;38546.87
1725017749.311;350;27.78;38546.87
1725017749.360;350;27.78;38546.87
1725017749.410;350;27.78;38540.46
1725017749.460;350;27.74;38513.33
1725017749.510;350;27.74;38513.33
1725017749.560;350;27.74;38513.33
1725017749.611;350;27.74;38513.33
1725017749.660;350;25.49;36924.46
1725017749.710;350;25.40;36862.80
1725017749.761;350;25.40;36862.80
1725017749.812;350;25.40;36862.80
1725017749.861;350;25.40;36862.80
1725017749.912;350;21.39;34033.00
1725017749.961;350;23.70;35660.54
1725017750.011;350;23.86;35775.07
1725017750.062;350;23.86;35775.07
1725017750.112;350;23.86;35775.07
1725017750.161;350;23.97;35852.67
1725017750.211;350;24.92;36522.07
1725017750.262;350;25.65;37042.80
1725017750.312;350;25.65;37042.80
1725017750.362;350;25.65;37042.80
1725017750.412;350;25.65;37042.80
1725017750.461;350;27.77;38534.93
1725017750.512;350;27.06;38036.13
1725017750.563;350;26.18;37415.07
1725017750.613;350;26.18;37415.07
1725017750.663;350;26.18;37415.07
1725017750.713;350;26.18;37415.07
1725017750.764;350;27.68;38475.73
1725017750.814;350;27.54;38374.54
1725017750.864;350;23.09;35230.73
1725017750.914;350;23.09;35230.73
1725017750.963;350;23.09;35230.73
1725017751.014;350;23.09;35230.73
1725017751.063;350;24.73;36387.80
1725017751.114;350;21.95;34426.60
1725017751.163;350;23.90;35804.60
1725017751.214;350;23.90;35804.60
1725017751.263;350;23.90;35804.60
1725017751.314;350;23.90;35804.60
1725017751.363;350;26.92;37933.80
1725017751.415;350;27.75;38519.20
1725017751.465;350;27.75;38519.20
1725017751.514;350;27.75;38519.20
1725017751.564;350;27.58;38405.46
1725017751.614;350;27.78;38540.73
1725017751.665;350;25.84;37172.80
1725017751.716;350;25.84;37172.80
1725017751.765;350;25.84;37172.80
1725017751.815;350;26.77;37829.67
1725017751.867;350;27.06;38035.00
1725017751.917;350;26.16;37400.40
1725017751.967;350;26.84;37880.07
1725017752.017;350;26.84;37880.07
1725017752.068;350;26.84;37880.07
1725017752.118;350;26.70;37780.40
1725017752.167;350;25.86;37185.80
1725017752.218;350;27.34;38232.46
1725017752.267;350;27.46;38319.07
1725017752.317;350;27.46;38319.07
1725017752.367;350;27.46;38319.07
1725017752.418;350;27.72;38501.87
1725017752.467;350;27.76;38532.87
1725017752.517;350;27.78;38546.87
1725017752.568;350;27.78;38546.87
1725017752.618;350;27.78;38546.87
1725017752.667;350;27.78;38546.87
1725017752.717;350;27.58;38400.00
1725017752.768;350;27.80;38557.40
1725017752.818;350;27.77;38534.13
1725017752.867;350;27.56;38390.67
1725017752.918;350;27.56;38390.67
1725017752.968;350;27.56;38390.67
1725017753.018;350;27.56;38390.67
1725017753.068;350;27.59;38411.54
1725017753.118;350;25.58;36987.00
1725017753.169;350;25.58;36987.00
1725017753.218;350;25.58;36987.00
1725017753.268;350;25.58;36987.00
1725017753.318;350;21.01;33761.13
1725017753.368;350;27.77;38540.20
1725017753.419;350;24.92;36526.13
1725017753.468;350;24.92;36526.13
1725017753.519;350;24.92;36526.13
1725017753.569;350;24.92;36526.13
1725017753.619;350;22.23;34622.13
1725017753.668;350;22.44;34774.46
1725017753.719;350;22.27;34654.33
1725017753.769;350;23.45;35489.27
1725017753.819;350;23.45;35489.27
1725017753.869;350;23.45;35489.27
1725017753.919;350;23.45;35489.27
1725017753.970;350;27.01;37999.07
1725017754.019;350;23.16;35279.93
1725017754.069;350;27.54;38372.00
1725017754.120;350;27.54;38372.00
1725017754.170;350;27.54;38372.00
1725017754.220;350;25.76;37114.46
1725017754.270;350;24.16;35984.40
1725017754.321;350;22.10;34534.20
1725017769.902;350;23.15;35273.07
1725017769.953;350;23.15;35273.07
1725017770.002;350;23.15;35273.07
1725017770.053;350;20.86;33658.60
1725017770.102;350;26.51;37649.33
1725017770.153;350;26.51;37649.33
1725017770.203;350;26.51;37649.33
1725017770.253;350;27.88;38615.40
1725017770.303;350;21.18;33886.33
1725017770.353;350;21.18;33886.33
1725017770.404;350;21.18;33886.33
1725017770.454;350;22.74;34986.00
1725017770.504;350;27.27;38182.93
1725017770.554;350;27.27;38182.93
1725017770.613;350;27.27;38182.93
1725017770.654;350;27.27;38182.93
1725017770.705;350;27.48;38330.40
1725017770.756;350;27.48;38331.20
1725017771.057;350;20.92;33699.27
1725017771.107;350;22.94;35124.67
1725017771.157;350;22.94;35124.67
1725017771.208;350;22.94;35124.67
1725017771.257;350;21.36;34008.27
1725017771.308;350;27.72;38499.73
1725017771.358;350;27.73;38511.46
1725017771.407;350;27.73;38511.46
1725017771.458;350;27.73;38511.46
1725017771.507;350;27.73;38511.46
1725017771.557;350;27.16;38107.13
1725017771.607;350;27.70;38485.60
1725017771.658;350;27.65;38451.87
1725017771.708;350;27.65;38451.87
1725017771.758;350;27.65;38451.87
1725017771.808;350;27.65;38451.87
1725017771.858;350;25.42;36880.87
1725017771.909;350;27.28;38189.07
1725017771.959;350;27.64;38443.67
1725017772.009;350;27.64;38443.67
1725017772.058;350;27.64;38443.67
1725017772.108;350;27.64;38443.67
1725017772.158;350;21.10;33828.27
1725017772.208;350;27.26;38174.87
1725017772.258;350;22.35;34706.40
1725017772.308;350;22.90;35100.87
1725017772.358;350;22.90;35100.87
1725017772.409;350;22.90;35100.87
1725017772.459;350;23.99;35867.33
1725017772.508;350;27.73;38510.60
1725017772.559;350;27.72;38503.46
1725017772.609;350;27.72;38503.46
1725017772.658;350;27.72;38503.46
1725017772.710;350;25.91;37225.07
1725017772.760;350;23.12;35250.20
1725017772.810;350;24.15;35982.40
1725017772.860;350;24.15;35982.40
1725017772.910;350;24.15;35982.40
1725017772.960;350;25.45;36895.27
1725017773.011;350;22.17;34580.87
1725017773.061;350;22.38;34727.46
1725017773.111;350;22.38;34727.46
1725017773.161;350;22.38;34727.46
1725017773.211;350;22.38;34727.46
1725017773.261;350;25.03;36602.80
1725017773.311;350;25.46;36904.73
1725017773.361;350;23.54;35553.00
1725017773.412;350;23.54;35553.00
1725017773.462;350;23.54;35553.00
1725017773.512;350;23.54;35553.00
1725017773.562;350;22.65;34920.46
1725017773.612;350;27.67;38466.27
1725017773.662;350;27.26;38175.87
1725017773.712;350;21.35;34001.67
1725017773.762;350;21.35;34001.67
1725017773.812;350;21.35;34001.67
1725017773.862;350;25.15;36687.27
1725017773.913;350;22.24;34632.33
1725017773.963;350;24.00;35877.20
1725017774.014;350;24.00;35877.20
1725017774.064;350;24.00;35877.20
1725017774.114;350;24.00;35877.20
1725017774.164;350;21.98;34451.20
1725017774.213;350;25.00;36580.46
1725017774.264;350;22.34;34700.33
1725017774.313;350;22.34;34700.33
1725017774.363;350;22.34;34700.33
1725017774.414;350;26.04;37314.73
1725017774.464;350;24.04;35905.87
1725017774.514;350;22.56;34858.60
1725017774.564;350;22.56;34858.60
1725017774.614;350;22.56;34858.60
1725017774.664;350;22.55;34848.54
1725017774.714;350;27.53;38368.54
1725017774.764;350;27.41;38281.33
1725017774.814;350;27.41;38281.33
1725017774.864;350;27.41;38281.33
1725017774.914;350;27.01;38000.00
1725017774.964;350;27.02;38004.40
1725017775.015;350;23.29;35371.13
1725017775.065;350;25.37;36838.87
1725017775.115;350;25.37;36838.87
1725017775.165;350;25.37;36838.87
1725017775.215;350;25.00;36578.33
1725017775.265;350;20.97;33736.87
1725017775.366;350;22.16;34576.07
1725017775.416;350;22.16;34576.07
1725017775.465;350;22.16;34576.07
1725017775.516;350;23.22;35321.73
1725017775.566;350;20.87;33662.07
1725017775.616;350;22.70;34959.73
1725017775.666;350;22.70;34959.73
1725017775.716;350;22.70;34959.73
1725017775.766;350;22.88;35087.00
1725017775.816;350;27.64;38444.27
1725017775.867;350;27.56;38387.80
1725017775.917;350;26.13;37377.20
1725017775.967;350;26.13;37377.20
1725017776.017;350;26.13;37377.20
1725017776.067;350;26.13;37377.20
1725017776.117;350;22.95;35136.60
1725017776.168;350;25.66;37048.00
1725017776.218;350;22.19;34593.46
1725017776.268;350;22.19;34593.46
1725017776.318;350;22.19;34593.46
1725017776.368;350;22.57;34863.60
1725017776.418;350;23.59;35585.80
1725017776.468;350;22.15;34566.13
1725017776.517;350;22.15;34566.13
1725017776.568;350;22.15;34566.13
1725017776.619;350;22.15;34566.13
1725017776.668;350;27.16;38107.54
1725018042.952;94;30.00;33928.46
1725018043.003;92;30.00;34120.67
1725018043.053;92;30.00;34120.67
1725018043.102;92;30.00;34120.67
1725018043.153;98;30.00;33688.60
1725018043.203;92;30.00;34115.93
1725018043.254;92;30.00;34115.93
1725018043.303;92;30.00;34115.93
1725018043.354;94;30.00;33938.67
1725018043.404;39;30.00;37876.67
1725018043.453;39;30.00;37876.67
1725018043.504;39;30.00;37876.67
1725018043.555;45;30.00;37461.67
1725018043.605;90;30.00;34257.46
1725018043.655;85;30.00;34612.87
1725018043.705;85;30.00;34612.87
1725018043.755;85;30.00;34612.87
1725018043.804;85;30.00;34612.87
1725018043.854;63;30.00;36172.07
1725018043.905;31;30.00;38458.93
1725018043.955;31;30.00;38458.93
1725018044.004;31;30.00;38458.93
1725018044.055;57;30.00;36622.60
1725018044.106;96;30.00;33829.73
1725018044.156;70;30.00;35661.80
1725018044.206;70;30.00;35661.80
1725018044.256;70;30.00;35661.80
1725018044.306;66;30.00;35981.93
1725018044.356;82;30.00;34823.60
1725018044.407;89;30.00;34334.40
1725018044.457;89;30.00;34334.40
1725018044.507;89;30.00;34334.40
1725018044.557;45;30.00;37423.87
1725018044.607;96;30.00;33828.67
1725018044.658;96;30.00;33828.67
1725018044.707;96;30.00;33828.67
1725018044.758;47;30.00;37277.93
1725018044.808;40;30.00;37838.40
1725018044.858;51;30.00;37006.46
1725018044.907;51;30.00;37006.46
1725018044.959;51;30.00;37006.46
1725018045.008;37;30.00;37993.93
1725018045.108;64;30.00;36114.93
1725018045.159;64;30.00;36114.93
1725018045.209;64;30.00;36114.93
1725018045.258;86;30.00;34530.33
1725018045.509;80;30.00;34923.87
1725018045.759;88;30.00;34362.27
1725018046.261;98;30.00;33693.07
1725018046.664;88;30.00;34349.67
1725018063.517;98;30.00;33680.93
1725018063.567;98;30.00;33680.93
1725018063.617;98;30.00;33680.93
1725018063.667;98;30.00;33680.93
1725018063.717;86;30.00;34552.60
1725018063.767;86;30.00;34552.60
1725018063.818;86;30.00;34552.60
1725018063.868;86;30.00;34552.60
1725018063.917;43;30.00;37609.46
1725018063.967;84;30.00;34669.73
1725018064.017;84;30.00;34669.73
1725018064.068;84;30.00;34669.73
1725018064.117;84;30.00;34669.73
1725018064.167;63;30.00;36188.07
1725018064.218;65;30.00;36007.27
1725018064.269;65;30.00;36007.27
1725018064.318;65;30.00;36007.27
1725018064.369;65;30.00;36007.27
1725018064.423;97;30.00;33739.67
1725018064.621;47;30.00;37279.07
1725018064.671;96;30.00;33827.54
1725018064.872;94;30.00;33952.87
1725018064.921;97;30.00;33733.27
1725018064.971;97;30.00;33733.27
1725018065.021;97;30.00;33733.27
1725018065.122;57;30.00;36587.73
1725018065.172;57;30.00;36587.73
1725018065.222;57;30.00;36587.73
1725018065.272;57;30.00;36587.73
1725018065.321;63;30.00;36186.00
1725018065.372;32;30.00;38348.20
1725018065.422;32;30.00;38348.20
1725018065.471;32;30.00;38348.20
1725018065.521;32;30.00;38348.20
1725018065.572;57;30.00;36566.73
1725018065.622;51;30.00;37055.40
1725018065.672;51;30.00;37055.40
1725018065.722;51;30.00;37055.40
1725018065.772;51;30.00;37055.40
1725018065.822;51;30.00;37055.40
1725018065.873;51;30.00;37055.40
1725018065.922;96;30.00;33788.07
1725018065.973;84;30.00;34690.60
1725018066.073;97;30.00;33763.27
1725018066.123;97;30.00;33763.27
1725018066.173;97;30.00;33763.27
1725018066.223;97;30.00;33763.27
1725018066.274;32;30.00;38378.80
1725018066.324;42;30.00;37683.27
1725018066.374;79;30.00;35041.07
1725018066.423;37;30.00;38022.13
1725018066.475;37;30.00;38022.13
1725018066.524;37;30.00;38022.13
1725018066.575;86;30.00;34483.54
1725018066.625;57;30.00;36606.80
1725018066.675;41;30.00;37704.20
1725018066.724;41;30.00;37704.20
1725018066.775;41;30.00;37704.20
1725018066.825;41;30.00;37704.20
1725018066.876;37;30.00;38024.20
1725018066.926;37;30.00;38019.87
1725018066.976;91;30.00;34167.33
1725018067.026;95;30.00;33866.67
1725018067.076;95;30.00;33866.67
1725018067.126;95;30.00;33866.67
1725018067.176;37;30.00;38035.33
1725018067.226;42;30.00;37697.13
1725018067.276;95;30.00;33849.67
1725018067.326;95;30.00;33849.67
1725018067.376;95;30.00;33849.67
1725018067.426;93;30.00;33991.93
1725018067.477;46;30.00;37351.00
1725018067.527;34;30.00;38212.00
1725018067.577;34;30.00;38212.00
1725018067.628;34;30.00;38212.00
1725018067.677;34;30.00;38212.00
1725018067.727;65;30.00;35988.20
1725018067.778;78;30.00;35070.73
1725018067.827;78;30.00;35070.73
1725018067.877;78;30.00;35070.73
1725018067.927;73;30.00;35435.80
1725018067.978;93;30.00;34038.93
1725018068.027;59;30.00;36450.20
1725018068.080;58;30.00;36551.67
1725018068.127;58;30.00;36551.67
1725018068.178;58;30.00;36551.67
1725018068.227;58;30.00;36551.67
1725018068.277;55;30.00;36748.07
1725018068.327;32;30.00;38343.46
1725018068.377;70;30.00;35630.07
1725018068.427;70;30.00;35630.07
1725018068.477;70;30.00;35630.07
1725018068.528;70;30.00;35630.07
1725018068.579;74;30.00;35388.60
1725018068.628;73;30.00;35419.40
1725018068.678;84;30.00;34635.46
1725018068.729;84;30.00;34635.46
1725018068.778;84;30.00;34635.46
1725018068.829;84;30.00;34692.73
1725018068.878;64;30.00;36078.73
1725018068.928;70;30.00;35676.87
1725018068.979;70;30.00;35676.87
1725018069.029;70;30.00;35676.87
1725018069.079;75;30.00;35326.54
1725018069.129;97;30.00;33750.40
1725018069.179;41;30.00;37750.67
1725018069.229;41;30.00;37750.67
1725018069.279;41;30.00;37750.67
1725018069.329;41;30.00;37750.67
1725018069.381;48;30.00;37252.93
1725018069.430;48;30.00;37201.73
1725018069.480;68;30.00;35832.33
1725018069.529;68;30.00;35832.33
1725018069.579;68;30.00;35832.33
1725018069.679;46;30.00;37374.73
1725018069.730;57;30.00;36620.46
1725018069.779;57;30.00;36620.46
1725018069.830;57;30.00;36620.46
1725018069.880;58;30.00;36545.73
1725018069.929;81;30.00;34879.73
1725018069.980;76;30.00;35231.80
1725018070.029;76;30.00;35231.80
1725018070.079;76;30.00;35231.80
1725018070.129;76;30.00;35231.80
1725018070.179;82;30.00;34775.00
1725018070.230;92;30.00;34073.13
1725018085.745;96;30.00;33773.13
1725018085.796;96;30.00;33773.13
1725018085.845;96;30.00;33773.13
1725018085.896;96;30.00;33773.13
1725018085.996;46;30.00;37385.07
1725018086.046;97;30.00;33731.20
1725018086.096;97;30.00;33731.20
1725018086.145;97;30.00;33731.20
1725018086.196;97;30.00;33731.20
1725018086.246;96;30.00;33834.60
1725018086.296;80;30.00;34911.93
1725018086.346;97;30.00;33731.93
1725018086.396;97;30.00;33731.93
1725018086.447;97;30.00;33731.93
1725018086.499;86;30.00;34545.54
1725018086.547;84;30.00;34660.80
1725018086.597;93;30.00;34044.93
1725018086.647;30;30.00;38524.33
1725018086.697;30;30.00;38524.33
1725018086.747;30;30.00;38524.33
1725018086.797;31;30.00;38436.93
1725018086.847;93;30.00;34023.60
1725018086.898;68;30.00;35828.67
1725018086.948;73;30.00;35471.40
1725018086.998;73;30.00;35471.40
1725018087.047;73;30.00;35471.40
1725018087.098;84;30.00;34634.33
1725018087.149;60;30.00;36365.87
1725018087.199;49;30.00;37173.00
1725018087.249;49;30.00;37173.00
1725018087.300;49;30.00;37173.00
1725018087.349;49;30.00;37173.00
1725018087.400;66;30.00;35917.54
1725018087.449;93;30.00;33990.80
1725018087.700;86;30.00;34495.33
1725018088.001;40;30.00;37835.27
1725018088.252;86;30.00;34506.27
1725018088.754;97;30.00;33721.13
1725018088.805;97;30.00;33721.13
1725018088.854;97;30.00;33721.13
1725018088.904;97;30.00;33721.13
1725018088.954;29;30.00;38561.40
1725018089.006;71;30.00;35607.13
1725018089.056;71;30.00;35607.13
1725018089.105;71;30.00;35607.13
1725018089.155;71;30.00;35607.13
1725018089.205;62;30.00;36222.54
1725018089.256;49;30.00;37174.46
1725018089.306;49;30.00;37174.46
1725018089.356;49;30.00;37174.46
1725018089.406;49;30.00;37174.46
1725018089.456;53;30.00;36884.20
1725018089.506;53;30.00;36870.54
1725018089.557;53;30.00;36870.54
1725018089.607;53;30.00;36870.54
1725018089.657;53;30.00;36870.54
1725018089.707;43;30.00;37606.73
1725018089.757;48;30.00;37199.07
1725018089.807;80;30.00;34972.93
1725018089.857;80;30.00;34972.93
1725018089.908;80;30.00;34972.93
1725018089.957;91;30.00;34183.33
1725018090.007;73;30.00;35431.13
1725018090.058;46;30.00;37389.80
1725018090.107;57;30.00;36608.87
1725018090.157;57;30.00;36608.87
1725018090.207;57;30.00;36608.87
1725018090.257;57;30.00;36608.87
1725018090.307;83;30.00;34738.87
1725018090.357;95;30.00;33850.87
1725018090.407;89;30.00;34282.20
1725018090.458;89;30.00;34282.20
1725018090.507;89;30.00;34282.20
1725018090.558;89;30.00;34282.20
1725018090.908;33;30.00;38299.40
1725018320.443;200;25.65;33322.33
1725018320.493;200;25.57;33308.40
1725018320.543;200;25.57;33308.40
1725018320.592;200;25.57;33308.40
1725018320.693;200;27.01;33555.40
1725018320.744;200;28.32;33778.54
1725018320.794;200;28.32;33778.54
1725018320.843;200;28.32;33778.54
1725018320.893;200;31.40;34304.00
1725018320.945;200;24.51;33128.33
1725018320.995;200;26.18;33413.87
1725018321.045;200;26.18;33413.87
1725018321.095;200;26.18;33413.87
1725018321.145;200;24.82;33181.60
1725018321.194;200;28.80;33859.73
1725018321.245;200;31.88;34386.40
1725018321.295;200;31.88;34386.40
1725018321.346;200;31.88;34386.40
1725018321.395;200;31.88;34386.40
1725018321.446;200;28.76;33854.07
1725018321.496;200;32.00;34406.00
1725018321.546;200;24.78;33175.00
1725018321.595;200;24.78;33175.00
1725018321.647;200;24.78;33175.00
1725018321.697;200;24.78;33175.00
1725018321.747;200;29.74;34021.33
1725018321.797;200;32.00;34406.00
1725018321.847;200;25.84;33354.46
1725018321.897;200;25.84;33354.46
1725018321.947;200;25.84;33354.46
1725018321.997;200;25.84;33354.46
1725018322.048;200;31.91;34390.54
1725018322.098;200;32.00;34406.00
1725018322.147;200;32.00;34406.00
1725018322.197;200;32.00;34406.00
1725018322.247;200;32.00;34406.00
1725018322.297;200;32.00;34406.00
1725018322.348;200;27.60;33655.67
1725018322.398;200;30.85;34209.46
1725018322.447;200;30.85;34209.46
1725018322.498;200;30.85;34209.46
1725018322.549;200;30.90;34219.40
1725018322.598;200;27.43;33627.40
1725018322.648;200;26.40;33450.60
1725018322.698;200;26.40;33450.60
1725018322.749;200;26.40;33450.60
1725018322.799;200;26.40;33450.60
1725018322.850;200;30.36;34126.87
1725018322.899;200;29.91;34050.00
1725018322.950;200;29.91;34050.00
1725018322.999;200;29.91;34050.00
1725018323.049;200;29.91;34050.00
1725018323.099;200;27.22;33591.54
1725018323.149;200;32.00;34406.00
1725018323.199;200;32.00;34406.00
1725018323.249;200;32.00;34406.00
1725018323.300;200;32.00;34406.00
1725018323.350;200;32.00;34406.00
1725018323.400;200;27.16;33579.87
1725018323.450;200;29.16;33921.93
1725018323.500;200;29.16;33921.93
1725018323.549;200;29.16;33921.93
1725018323.599;200;29.17;33923.87
1725018323.652;200;28.82;33863.67
1725018323.701;200;28.82;33863.67
1725018323.760;200;28.82;33863.67
1725018323.801;200;28.82;33863.67
1725018323.853;200;31.37;34298.93
1725018323.903;200;31.81;34374.93
1725018323.953;200;31.81;34374.93
1725018324.003;200;31.81;34374.93
1725018324.053;200;32.00;34406.00
1725018324.103;200;30.49;34149.60
1725018324.154;200;31.65;34346.13
1725018324.203;200;31.65;34346.13
1725018324.253;200;31.65;34346.13
1725018324.303;200;32.00;34406.00
1725018324.353;200;32.00;34406.00
1725018324.403;200;32.00;34406.00
1725018324.454;200;32.00;34406.00
1725018324.504;200;32.00;34406.00
1725018324.554;200;30.66;34177.27
1725018324.604;200;24.55;33135.33
1725018324.654;200;24.55;33135.33
1725018324.704;200;24.55;33135.33
1725018324.754;200;24.55;33135.33
1725018324.805;200;31.19;34268.07
1725018324.855;200;27.06;33563.54
1725018324.904;200;27.06;33563.54
1725018324.955;200;27.06;33563.54
1725018325.005;200;32.00;34406.00
1725018325.055;200;27.83;33695.60
1725018325.105;200;32.00;34406.00
1725018325.154;200;32.00;34406.00
1725018325.205;200;32.00;34406.00
1725018325.254;200;32.00;34406.00
1725018325.305;200;30.77;34196.87
1725018325.356;200;25.42;33282.80
1725018325.405;200;25.42;33282.80
1725018325.455;200;25.42;33282.80
1725018325.506;200;25.42;33282.80
1725018325.556;200;25.24;33253.20
1725018325.607;200;27.93;33712.73
1725018325.656;200;27.29;33603.27
1725018325.706;200;27.29;33603.27
1725018325.756;200;27.29;33603.27
1725018325.806;200;27.29;33603.27
1725018325.858;200;27.29;33603.27
1725018325.907;200;26.46;33461.00
1725018325.958;200;28.00;33723.73
1725018326.007;200;32.00;34406.00
1725018326.057;200;32.00;34406.00
1725018326.108;200;32.00;34406.00
1725018326.159;200;29.82;34033.67
1725018326.208;200;24.90;33194.13
1725018326.258;200;26.13;33403.87
1725018326.308;200;28.22;33761.87
1725018326.358;200;28.22;33761.87
1725018326.409;200;28.22;33761.87
1725018326.459;200;28.22;33761.87
1725018326.508;200;32.00;34406.00
1725018326.559;200;25.05;33221.13
1725018326.608;200;27.08;33566.20
1725018326.658;200;27.08;33566.20
1725018326.709;200;27.08;33566.20
1725018326.759;200;25.81;33349.93
1725018326.808;200;32.00;34406.00
1725018326.858;200;32.00;34406.00
1725018326.909;200;32.00;34406.00
1725018326.959;200;32.00;34406.00
1725018327.009;200;32.00;34406.00
1725018327.059;200;32.00;34406.00
1725018327.109;200;32.00;34406.00
1725018327.159;200;31.88;34386.54
1725018327.209;200;31.88;34386.54
1725018327.259;200;31.88;34386.54
1725018327.309;200;31.88;34386.54
1725018327.359;200;29.41;33964.87
1725018327.409;200;28.69;33841.80
1725018327.459;200;31.72;34359.20
1725018342.830;200;24.21;33076.93
1725018342.880;200;24.44;33116.07
1725018342.932;200;24.44;33116.07
1725018342.982;200;24.44;33116.07
1725018343.032;200;32.00;34406.00
1725018343.082;200;32.00;34406.00
1725018343.132;200;32.00;34406.00
1725018343.182;200;32.00;34406.00
1725018343.233;200;32.00;34406.00
1725018343.282;200;32.00;34406.00
1725018343.332;200;32.00;34406.00
1725018343.383;200;32.00;34406.00
1725018343.434;200;27.85;33697.73
1725018343.485;200;25.33;33267.80
1725018343.534;200;25.33;33267.80
1725018343.584;200;25.33;33267.80
1725018343.635;200;25.33;33267.80
1725018343.684;200;32.00;34406.00
1725018343.736;200;28.30;33775.33
1725018343.786;200;29.01;33896.40
1725018343.836;200;29.01;33896.40
1725018343.886;200;29.01;33896.40
1725018343.935;200;29.01;33896.40
1725018343.987;200;28.64;33833.73
1725018344.038;200;29.04;33900.54
1725018344.087;200;26.72;33505.33
1725018344.137;200;28.21;33759.00
1725018344.187;200;28.21;33759.00
1725018344.238;200;28.21;33759.00
1725018344.288;200;30.92;34222.27
1725018344.338;200;28.85;33869.60
1725018344.388;200;28.97;33889.20
1725018344.438;200;30.75;34193.67
1725018344.488;200;30.75;34193.67
1725018344.538;200;30.75;34193.67
1725018344.588;200;30.77;34196.87
1725018344.638;200;32.00;34406.00
1725018344.688;200;32.00;34406.00
1725018344.737;200;28.23;33763.73
1725018344.788;200;28.23;33763.73
1725018344.838;200;28.23;33763.73
1725018344.887;200;27.57;33651.00
1725018344.937;200;27.84;33696.27
1725018344.987;200;32.00;34406.00
1725018345.037;200;32.00;34406.00
1725018345.088;200;32.00;34406.00
1725018345.138;200;32.00;34406.00
1725018345.188;200;31.65;34347.33
1725018345.238;200;26.94;33542.13
1725018345.288;200;26.94;33542.13
1725018345.338;200;26.94;33542.13
1725018345.388;200;26.94;33542.13
1725018345.439;200;32.00;34406.00
1725018345.488;200;30.79;34199.46
1725018345.539;200;29.49;33977.60
1725018345.588;200;29.49;33977.60
1725018345.639;200;29.49;33977.60
1725018345.689;200;31.36;34298.13
1725018345.739;200;31.41;34306.40
1725018345.789;200;31.41;34306.40
1725018345.839;200;31.44;34311.73
1725018345.889;200;31.44;34311.73
1725018345.939;200;31.44;34311.73
1725018345.988;200;31.44;34311.73
1725018346.038;200;26.77;33514.54
1725018346.089;200;29.74;34021.27
1725018346.139;200;26.17;33411.07
1725018346.189;200;26.17;33411.07
1725018346.239;200;26.17;33411.07
1725018346.289;200;26.17;33411.07
1725018346.339;200;24.82;33181.73
1725018346.389;200;24.86;33187.87
1725018346.439;200;27.42;33625.07
1725018346.489;200;27.42;33625.07
1725018346.539;200;27.42;33625.07
1725018346.589;200;27.42;33625.07
1725018346.639;200;25.82;33352.54
1725018346.689;200;27.61;33657.87
1725018346.739;200;31.73;34360.27
1725018346.789;200;31.73;34360.27
1725018346.839;200;31.73;34360.27
1725018346.889;200;32.00;34406.00
1725018346.941;200;32.00;34406.00
1725018346.990;200;32.00;34406.00
1725018347.040;200;32.00;34406.00
1725018347.090;200;32.00;34406.00
1725018347.140;200;31.52;34324.54
1725018347.191;200;24.06;33052.00
1725018347.241;200;24.06;33052.00
1725018347.290;200;24.06;33052.00
1725018347.341;200;29.37;33956.93
1725018347.392;200;28.79;33859.00
1725018347.442;200;28.09;33739.46
1725018347.492;200;28.09;33739.46
1725018347.543;200;28.09;33739.46
1725018347.593;200;26.77;33514.33
1725018347.642;200;28.96;33887.54
1725018347.692;200;26.16;33410.13
1725018347.743;200;26.16;33410.13
1725018347.793;200;26.16;33410.13
1725018347.843;200;26.16;33410.13
1725018347.893;200;31.11;34255.27
1725018347.944;200;32.00;34406.00
1725018347.994;200;31.70;34354.93
1725018348.043;200;31.70;34354.93
1725018348.094;200;31.70;34354.93
1725018348.145;200;27.42;33625.20
1725018348.195;200;25.20;33245.87
1725018348.245;200;28.86;33870.27
1725018348.295;200;28.86;33870.27
1725018348.345;200;28.86;33870.27
1725018348.396;200;28.86;33870.27
1725018348.446;200;28.05;33732.46
1725018348.496;200;25.21;33247.33
1725018348.545;200;32.00;34406.00
1725018348.597;200;32.00;34406.00
1725018348.646;200;32.00;34406.00
1725018348.696;200;29.36;33956.40
1725018348.746;200;32.00;34406.00
1725018348.796;200;30.56;34160.67
1725018348.848;200;31.59;34337.33
1725018348.897;200;31.59;34337.33
1725018348.948;200;31.59;34337.33
1725018348.997;200;31.59;34337.33
1725018349.047;200;30.84;34208.60
1725018349.097;200;32.00;34406.00
1725018349.149;200;32.00;34406.00
1725018349.198;200;32.00;34406.00
1725018349.248;200;32.00;34406.00
1725018349.298;200;32.00;34406.00
1725018349.348;200;31.49;34319.46
1725018349.399;200;28.64;33832.54
1725018349.449;200;28.64;33832.54
1725018349.499;200;28.64;33832.54
1725018349.549;200;30.41;34134.73
1725018349.599;200;31.99;34404.46
1725018349.649;200;24.88;33191.60
1725018349.699;200;24.77;33173.33
1725018349.748;200;24.77;33173.33
1725018349.798;200;24.77;33173.33
1725018349.849;200;24.77;33173.33
1725018349.899;200;32.00;34406.00
1725018349.949;200;32.00;34406.00
1725018349.999;200;32.00;34406.00
1725018350.048;200;28.50;33809.07
1725018350.098;200;28.50;33809.07
1725018350.149;200;28.50;33809.07
1725018350.200;200;27.06;33563.33
1725018350.249;200;25.80;33347.54
1725018350.300;200;27.72;33676.60
1725018365.067;200;24.50;33126.54
1725018365.118;200;24.50;33126.54
1725018365.168;200;24.50;33126.54
1725018365.219;200;25.48;33293.46
1725018365.269;200;26.70;33502.20
1725018365.318;200;26.70;33502.20
1725018365.369;200;26.70;33502.20
1725018365.419;200;26.70;33502.20
1725018365.468;200;32.00;34406.00
1725018365.518;200;30.15;34091.40
1725018365.569;200;30.15;34091.40
1725018365.618;200;30.15;34091.40
1725018365.669;200;30.15;34091.40
1725018365.720;200;32.00;34406.00
1725018365.769;200;30.76;34195.40
1725018365.819;200;27.98;33720.40
1725018365.869;200;27.98;33720.40
1725018365.919;200;27.98;33720.40
1725018365.969;200;27.98;33720.40
1725018366.020;200;32.00;34406.00
1725018366.069;200;28.56;33819.33
1725018366.119;200;29.73;34018.73
1725018366.169;200;28.37;33787.00
1725018366.219;200;28.37;33787.00
1725018366.271;200;28.37;33787.00
1725018366.321;200;28.11;33742.54
1725018366.370;200;32.00;34406.00
1725018366.421;200;28.39;33790.46
1725018366.471;200;31.39;34303.20
1725018366.522;200;31.39;34303.20
1725018366.572;200;31.39;34303.20
1725018366.622;200;25.82;33351.27
1725018366.673;200;26.46;33461.60
1725018366.723;200;26.17;33410.87
1725018366.772;200;26.17;33410.87
1725018366.823;200;26.17;33410.87
1725018366.872;200;26.17;33410.87
1725018366.922;200;30.50;34150.40
1725018366.972;200;32.00;34406.00
1725018367.022;200;32.00;34406.00
1725018367.073;200;26.57;33479.13
1725018367.123;200;26.57;33479.13
1725018367.174;200;26.57;33479.13
1725018367.223;200;25.37;33274.73
1725018367.274;200;24.76;33170.60
1725018367.323;200;25.68;33328.00
1725018367.374;200;25.68;33328.00
1725018367.423;200;25.68;33328.00
1725018367.475;200;29.02;33898.00
1725018367.525;200;26.27;33429.13
1725018367.574;200;28.43;33797.27
1725018367.625;200;27.88;33703.73
1725018367.675;200;27.88;33703.73
1725018367.725;200;27.88;33703.73
1725018367.775;200;26.13;33405.33
1725018367.825;200;32.00;34406.00
1725018367.875;200;32.00;34406.00
1725018367.925;200;32.00;34406.00
1725018367.975;200;32.00;34406.00
1725018368.026;200;32.00;34406.00
1725018368.075;200;32.00;34406.00
1725018368.126;200;27.90;33706.54
1725018368.176;200;27.90;33706.54
1725018368.226;200;27.90;33706.54
1725018368.277;200;27.90;33706.54
1725018368.327;200;31.82;34375.87
1725018368.377;200;29.80;34031.27
1725018368.427;200;29.80;34031.27
1725018368.477;200;29.80;34031.27
1725018368.527;200;29.80;34031.27
1725018368.578;200;32.00;34406.00
1725018368.627;200;28.06;33733.73
1725018368.677;200;25.94;33371.73
1725018368.728;200;25.94;33371.73
1725018368.777;200;25.94;33371.73
1725018368.828;200;30.70;34184.27
1725018368.878;200;26.99;33551.00
1725018368.927;200;26.99;33551.00
1725018368.978;200;26.99;33551.00
1725018369.027;200;25.62;33317.54
1725018369.078;200;26.75;33510.67
1725018369.128;200;26.75;33510.67
1725018369.177;200;26.75;33510.67
1725018369.228;200;26.49;33466.67
1725018369.278;200;32.00;34406.00
1725018369.327;200;31.61;34340.67
1725018369.377;200;31.61;34340.67
1725018369.427;200;31.61;34340.67
1725018369.477;200;32.00;34406.00
1725018369.527;200;29.84;34038.00
1725018369.577;200;31.52;34324.13
1725018369.627;200;31.52;34324.13
1725018369.678;200;31.52;34324.13
1725018369.728;200;31.52;34324.13
1725018369.778;200;29.25;33936.67
1725018369.828;200;32.00;34406.00
1725018369.879;200;32.00;34406.00
1725018369.928;200;32.00;34406.00
1725018369.978;200;32.00;34406.00
1725018370.029;200;27.17;33582.67
1725018370.078;200;28.60;33826.67
1725018370.129;200;28.60;33826.67
1725018370.179;200;28.60;33826.67
1725018370.228;200;28.60;33826.67
1725018370.278;200;28.51;33810.73
1725018370.329;200;26.04;33389.67
1725018370.379;200;28.82;33863.67
1725018370.429;200;28.82;33863.67
1725018370.478;200;28.82;33863.67
1725018370.529;200;28.82;33863.67
1725018370.579;200;32.00;34406.00
1725018370.629;200;31.63;34342.93
1725018370.679;200;31.47;34316.46
1725018370.730;200;31.47;34316.46
1725018370.779;200;31.47;34316.46
1725018370.830;200;31.89;34388.27
1725018370.879;200;26.97;33548.60
1725018370.929;200;29.60;33997.27
1725018370.981;200;29.54;33986.13
1725018371.030;200;29.54;33986.13
1725018371.081;200;29.54;33986.13
1725018371.131;200;29.97;34059.27
1725018371.181;200;26.85;33528.27
1725018371.231;200;29.31;33947.60
1725018371.281;200;29.31;33947.60
1725018371.331;200;29.31;33947.60
1725018371.380;200;29.31;33947.60
1725018371.431;200;31.44;34310.27
1725018371.480;200;32.00;34406.00
1725018371.530;200;32.00;34406.00
1725018371.580;200;32.00;34406.00
1725018371.631;200;32.00;34406.00
1725018371.681;200;32.00;34406.00
1725018371.731;200;28.81;33862.87
1725018371.786;200;26.79;33516.60
1725018371.832;200;26.79;33516.60
1725018371.882;200;25.26;33255.67
1725018371.932;200;25.26;33255.67
1725018371.982;200;25.26;33255.67
1725018372.033;200;25.26;33255.67
1725018372.082;200;32.00;34406.00
1725018372.133;200;31.86;34383.46
1725018372.183;200;32.00;34406.00
1725018372.233;200;32.00;34406.00
1725018372.283;200;32.00;34406.00
1725018372.334;200;32.00;34406.00
1725018372.383;200;32.00;34406.00
1725018372.434;200;28.26;33767.73
1725018372.483;200;32.00;34406.00
1725018803.494;50;20.90;33686.33
1725018803.945;50;21.21;33903.87
1725018803.996;50;21.21;33903.87
1725018804.046;50;21.21;33903.87
1725018804.096;50;21.21;33903.87
1725018804.146;50;26.74;37807.46
1725018804.196;50;26.74;37807.46
1725018804.246;50;26.74;37807.46
1725018804.296;50;26.74;37807.46
1725018804.346;50;26.74;37807.46
1725018804.397;50;24.79;36435.07
1725018804.447;50;26.55;37673.27
1725018804.497;50;26.39;37561.67
1725018804.547;50;26.39;37561.67
1725018804.597;50;26.39;37561.67
1725018804.646;50;27.25;38173.00
1725018804.697;50;24.22;36031.87
1725018804.747;50;26.81;37860.20
1725018804.797;50;26.63;37732.73
1725018804.998;50;22.61;34891.20
1725018805.048;50;22.67;34938.33
1725018805.299;50;26.93;37944.87
1725018822.689;50;20.88;33671.40
1725018822.739;50;20.88;33671.40
1725018822.789;50;20.88;33671.40
1725018822.889;50;26.88;37907.60
1725018822.939;50;26.88;37907.60
1725018822.989;50;26.88;37907.60
1725018823.038;50;26.88;37907.60
1725018823.138;50;21.40;34036.13
1725018823.189;50;21.40;34036.13
1725018823.239;50;21.40;34036.13
1725018823.288;50;23.45;35484.27
1725018823.389;50;26.53;37662.27
1725018823.440;50;26.53;37662.27
1725018823.489;50;26.53;37662.27
1725018823.540;50;24.17;35992.27
1725018823.590;50;27.07;38042.73
1725018823.640;50;24.87;36487.60
1725018823.690;50;24.87;36487.60
1725018823.740;50;24.87;36487.60
1725018823.791;50;22.98;35156.80
1725018823.842;50;22.98;35156.80
1725018823.941;50;26.65;37742.87
1725018823.991;50;26.65;37742.87
1725018824.041;50;26.65;37742.87
1725018824.092;50;26.65;37742.87
1725018824.191;50;22.10;34535.54
1725018824.242;50;22.21;34608.93
1725018824.292;50;22.21;34608.93
1725018824.342;50;22.21;34608.93
1725018824.392;50;25.82;37157.60
1725018824.442;50;21.14;33857.93
1725018824.492;50;23.95;35836.73
1725018824.542;50;23.95;35836.73
1725018824.596;50;23.95;35836.73
1725018824.644;50;22.16;34572.07
1725018824.694;50;27.07;38039.00
1725018824.944;50;25.32;36806.54
1725018825.195;50;21.41;34045.80
1725018825.245;50;21.41;34045.80
1725018825.295;50;21.41;34045.80
1725018825.346;50;21.41;34045.80
1725018825.449;50;27.09;38055.20
1725018825.499;50;25.76;37118.07
1725018825.549;50;25.76;37118.07
1725018825.600;50;25.76;37118.07
1725018825.700;50;23.90;35803.00
1725018825.750;50;27.17;38112.60
1725018825.801;50;27.17;38112.60
1725018825.850;50;27.17;38112.60
1725018825.901;50;27.17;38112.60
1725018826.051;50;22.67;34937.93
1725018826.101;50;22.67;34937.93
1725018826.151;50;22.67;34937.93
1725018826.202;50;22.76;35002.46
1725018826.452;50;26.10;37358.20
1725018826.752;50;27.07;38043.87
1725018843.714;50;21.51;34115.73
1725018843.764;50;21.51;34115.73
1725018843.813;50;21.51;34115.73
1725018843.914;50;21.71;34254.73
1725018843.964;50;21.71;34254.73
1725018844.014;50;21.71;34254.73
1725018844.065;50;22.92;35115.27
1725018844.115;50;24.01;35879.00
1725018844.166;50;24.01;35879.00
1725018844.215;50;24.01;35879.00
1725018844.266;50;24.92;36521.27
1725018844.316;50;26.65;37743.27
1725018844.366;50;21.69;34244.60
1725018844.418;50;21.69;34244.60
1725018844.467;50;21.69;34244.60
1725018844.518;50;22.70;34958.73
1725018844.568;50;21.99;34454.13
1725018844.618;50;26.94;37952.80
1725018844.668;50;26.94;37952.80
1725018844.718;50;26.94;37952.80
1725018845.267;50;21.63;34201.33
1725018845.520;50;21.46;34079.60
1725018845.570;50;21.46;34079.60
1725018845.620;50;21.46;34079.60
1725018845.670;50;21.46;34079.60
1725018845.720;50;21.46;34079.60
1725018845.820;50;24.44;36187.27
1725018845.870;50;24.44;36187.27
1725018845.920;50;24.44;36187.27
1725018845.970;50;24.44;36187.27
1725018846.020;50;23.40;35450.93
1725018846.121;50;24.89;36499.87
1725018846.171;50;24.89;36499.87
1725018846.221;50;24.89;36499.87
1725018846.272;50;24.89;36499.87
1725018846.322;50;22.38;34732.87
1725018846.373;50;22.68;34945.20
1725018846.423;50;22.21;34608.00
1725018846.473;50;26.86;37891.33
1725018846.523;50;26.86;37891.33
1725018846.573;50;26.86;37891.33
1725018846.623;50;26.86;37891.33
1725018846.673;50;26.73;37803.00
1725018846.773;50;22.15;34570.60
1725018846.823;50;22.15;34570.60
1725018846.873;50;22.15;34570.60
1725018846.923;50;22.15;34570.60
1725018846.973;50;25.52;36947.93
1725018847.073;50;20.93;33704.33
1725018847.123;50;21.26;33937.80
1725018847.173;50;21.26;33937.80
1725018847.223;50;21.26;33937.80
1725018847.273;50;27.08;38051.40
1725018847.324;50;24.27;36067.87
1725018847.574;50;22.11;34536.80
1725019294.414;350;24.13;33062.67
1725019294.464;350;24.13;33062.67
1725019294.513;350;24.13;33062.67
1725019294.565;350;24.91;33197.20
1725019294.614;350;29.32;33949.00
1725019294.666;350;29.32;33949.00
1725019294.716;350;29.32;33949.00
1725019294.766;350;27.93;33711.27
1725019294.816;350;32.00;34406.00
1725019294.866;350;32.00;34406.00
1725019294.915;350;32.00;34406.00
1725019294.967;350;31.97;34402.07
1725019295.018;350;28.23;33762.54
1725019295.068;350;32.00;34406.00
1725019295.117;350;32.00;34406.00
1725019295.167;350;32.00;34406.00
1725019295.217;350;32.00;34406.00
1725019295.267;350;27.16;33580.73
1725019295.318;350;32.00;34406.00
1725019295.367;350;32.00;34406.00
1725019295.417;350;32.00;34406.00
1725019295.467;350;32.00;34406.00
1725019295.517;350;30.37;34128.73
1725019295.567;350;29.71;34015.93
1725019295.618;350;29.71;34015.93
1725019295.667;350;29.71;34015.93
1725019295.718;350;29.71;34015.93
1725019295.768;350;32.00;34406.00
1725019295.817;350;27.69;33670.40
1725019295.867;350;27.56;33649.20
1725019295.918;350;27.56;33649.20
1725019295.968;350;27.56;33649.20
1725019296.017;350;27.56;33649.20
1725019296.067;350;28.90;33878.00
1725019296.118;350;32.00;34406.00
1725019296.167;350;27.13;33575.40
1725019296.219;350;27.13;33575.40
1725019296.268;350;27.13;33575.40
1725019296.318;350;27.13;33575.40
1725019296.368;350;32.00;34406.00
1725019296.419;350;28.67;33837.54
1725019296.469;350;26.65;33494.13
1725019296.519;350;26.65;33494.13
1725019296.568;350;26.65;33494.13
1725019296.619;350;27.59;33653.93
1725019296.668;350;28.42;33795.93
1725019296.719;350;28.58;33822.40
1725019296.768;350;28.58;33822.40
1725019296.819;350;28.58;33822.40
1725019296.869;350;26.70;33502.60
1725019296.919;350;26.70;33502.60
1725019296.970;350;26.70;33502.60
1725019297.019;350;26.70;33502.60
1725019297.071;350;27.76;33683.54
1725019297.120;350;27.76;33683.54
1725019297.171;350;27.76;33683.54
1725019297.222;350;27.76;33683.54
1725019297.271;350;32.00;34406.00
1725019297.322;350;27.47;33633.40
1725019297.371;350;28.21;33760.40
1725019297.422;350;28.21;33760.40
1725019297.472;350;28.21;33760.40
1725019297.522;350;26.55;33475.73
1725019297.572;350;30.32;34119.67
1725019297.622;350;30.32;34119.67
1725019297.672;350;30.32;34119.67
1725019297.723;350;30.32;34119.67
1725019297.772;350;32.00;34406.00
1725019297.823;350;32.00;34406.00
1725019297.872;350;32.00;34406.00
1725019297.923;350;32.00;34406.00
1725019297.973;350;28.01;33725.73
1725019298.023;350;29.43;33967.60
1725019298.072;350;29.12;33915.46
1725019298.123;350;29.12;33915.46
1725019298.172;350;29.12;33915.46
1725019298.223;350;27.32;33607.93
1725019298.273;350;26.93;33540.60
1725019298.323;350;31.20;34269.67
1725019298.372;350;32.00;34406.00
1725019298.424;350;32.00;34406.00
1725019298.474;350;32.00;34406.00
1725019298.524;350;32.00;34406.00
1725019298.573;350;32.00;34406.00
1725019298.625;350;30.60;34167.80
1725019298.674;350;31.34;34294.80
1725019298.725;350;32.00;34406.00
1725019298.774;350;32.00;34406.00
1725019298.825;350;32.00;34406.00
1725019298.875;350;32.00;34406.00
1725019298.925;350;28.82;33864.46
1725019298.975;350;26.37;33445.80
1725019299.024;350;32.00;34406.00
1725019299.075;350;30.09;34080.33
1725019299.126;350;30.09;34080.33
1725019299.175;350;30.09;34080.33
1725019299.226;350;30.09;34080.33
1725019299.276;350;31.67;34350.13
1725019299.327;350;26.58;33480.67
1725019299.376;350;28.46;33801.54
1725019299.426;350;28.46;33801.54
1725019299.476;350;28.46;33801.54
1725019299.527;350;28.46;33801.54
1725019299.576;350;32.00;34406.00
1725019299.626;350;32.00;34406.00
1725019299.677;350;27.22;33590.60
1725019299.726;350;27.22;33590.60
1725019299.776;350;27.22;33590.60
1725019299.827;350;27.22;33590.60
1725019299.876;350;32.00;34406.00
1725019299.926;350;27.51;33640.87
1725019299.978;350;32.00;34406.00
1725019300.027;350;32.00;34406.00
1725019300.078;350;32.00;34406.00
1725019300.128;350;32.00;34406.00
1725019300.178;350;32.00;34406.00
1725019300.228;350;30.08;34079.60
1725019300.278;350;26.34;33441.33
1725019300.328;350;26.34;33441.33
1725019300.378;350;26.34;33441.33
1725019300.428;350;26.34;33441.33
1725019300.478;350;29.02;33898.40
1725019300.529;350;32.00;34406.00
1725019300.579;350;31.86;34383.20
1725019300.629;350;31.86;34383.20
1725019300.678;350;31.86;34383.20
1725019300.728;350;31.86;34383.20
1725019300.787;350;32.00;34406.00
1725019300.833;350;31.50;34321.60
1725019300.884;350;29.19;33927.40
1725019300.933;350;31.48;34317.73
1725019300.984;350;31.48;34317.73
1725019301.034;350;31.48;34317.73
1725019301.084;350;31.48;34317.73
1725019301.134;350;32.00;34406.00
1725019301.184;350;30.39;34131.54
1725019301.234;350;32.00;34406.00
1725019301.284;350;31.16;34263.33
1725019301.334;350;31.16;34263.33
1725019301.384;350;31.16;34263.33
1725019301.434;350;31.16;34263.33
1725019301.484;350;32.00;34406.00
1725019301.535;350;29.86;34041.07
1725019301.585;350;27.86;33700.46
1725019301.634;350;27.86;33700.46
1725019301.686;350;27.86;33700.46
1725019301.736;350;30.19;34096.87
1725019301.786;350;32.00;34406.00
1725019301.836;350;31.84;34379.20
1725019317.455;350;23.97;33035.67
1725019317.504;350;23.97;33035.67
1725019317.554;350;23.97;33035.67
1725019317.604;350;24.96;33204.80
1725019317.654;350;25.18;33242.67
1725019317.705;350;25.18;33242.67
1725019317.755;350;25.18;33242.67
1725019317.805;350;24.75;33169.07
1725019317.855;350;24.75;33169.07
1725019317.905;350;24.75;33169.07
1725019317.956;350;24.75;33169.07
1725019318.156;350;25.13;33234.20
1725019318.206;350;25.90;33365.27
1725019318.256;350;27.81;33692.13
1725019318.306;350;27.81;33692.13
1725019318.356;350;27.81;33692.13
1725019318.406;350;27.81;33692.13
1725019318.457;350;29.29;33943.54
1725019318.507;350;28.25;33766.33
1725019318.558;350;28.25;33766.33
1725019318.608;350;28.25;33766.33
1725019318.658;350;32.00;34406.00
1725019318.708;350;32.00;34406.00
1725019318.758;350;31.66;34347.87
1725019318.808;350;24.08;33055.27
1725019318.857;350;24.08;33055.27
1725019318.908;350;24.08;33055.27
1725019318.959;350;24.08;33055.27
1725019319.009;350;26.25;33424.33
1725019319.058;350;29.05;33902.33
1725019319.109;350;30.81;34204.27
1725019319.158;350;28.23;33763.33
1725019319.209;350;25.73;33336.33
1725019319.259;350;27.27;33599.40
1725019319.308;350;27.27;33599.40
1725019319.359;350;27.27;33599.40
1725019319.409;350;32.00;34406.00
1725019319.459;350;32.00;34406.00
1725019319.510;350;32.00;34406.00
1725019319.560;350;32.00;34406.00
1725019319.610;350;32.00;34406.00
1725019319.660;350;32.00;34406.00
1725019319.709;350;32.00;34406.00
1725019319.760;350;27.48;33635.73
1725019319.809;350;32.00;34406.00
1725019319.860;350;32.00;34406.00
1725019319.909;350;29.25;33938.00
1725019319.960;350;29.25;33938.00
1725019320.010;350;29.25;33938.00
1725019320.059;350;32.00;34406.00
1725019320.110;350;30.14;34088.33
1725019320.160;350;32.00;34406.00
1725019320.210;350;32.00;34406.00
1725019320.259;350;32.00;34406.00
1725019320.310;350;32.00;34406.00
1725019320.360;350;31.96;34399.20
1725019320.411;350;31.50;34320.80
1725019320.461;350;32.00;34406.00
1725019320.510;350;32.00;34406.00
1725019320.561;350;32.00;34406.00
1725019320.610;350;32.00;34406.00
1725019320.661;350;26.09;33398.60
1725019320.710;350;32.00;34406.00
1725019320.761;350;32.00;34406.00
1725019320.811;350;32.00;34406.00
1725019320.861;350;32.00;34406.00
1725019320.911;350;32.00;34406.00
1725019320.961;350;32.00;34406.00
1725019321.012;350;32.00;34406.00
1725019321.062;350;32.00;34406.00
1725019321.111;350;31.18;34265.93
1725019321.162;350;31.18;34265.93
1725019321.213;350;31.18;34265.93
1725019321.263;350;32.00;34406.00
1725019321.312;350;31.00;34236.00
1725019321.362;350;31.39;34302.54
1725019321.414;350;31.39;34302.54
1725019321.464;350;31.39;34302.54
1725019321.513;350;32.00;34406.00
1725019321.564;350;30.68;34181.93
1725019321.614;350;32.00;34406.00
1725019321.665;350;32.00;34406.00
1725019321.715;350;32.00;34406.00
1725019321.765;350;26.82;33521.73
1725019321.814;350;26.67;33497.60
1725019321.871;350;29.05;33902.40
1725019321.919;350;29.05;33902.40
1725019321.968;350;29.05;33902.40
1725019322.018;350;29.05;33902.40
1725019322.068;350;32.00;34406.00
1725019322.119;350;32.00;34406.00
1725019322.168;350;30.96;34229.80
1725019322.218;350;30.96;34229.80
1725019322.268;350;30.96;34229.80
1725019322.319;350;31.43;34308.67
1725019322.369;350;28.41;33794.54
1725019322.418;350;27.17;33582.40
1725019322.469;350;27.17;33582.40
1725019322.518;350;27.17;33582.40
1725019322.569;350;30.67;34180.40
1725019322.619;350;32.00;34406.00
1725019322.669;350;32.00;34406.00
1725019322.719;350;32.00;34406.00
1725019322.769;350;32.00;34406.00
1725019322.819;350;32.00;34406.00
1725019322.869;350;31.76;34366.13
1725019322.919;350;27.10;33569.54
1725019322.970;350;27.10;33569.54
1725019323.020;350;27.10;33569.54
1725019323.070;350;27.10;33569.54
1725019323.119;350;32.00;34406.00
1725019323.170;350;29.77;34025.73
1725019323.221;350;29.77;34025.73
1725019323.271;350;29.77;34025.73
1725019323.321;350;29.77;34025.73
1725019323.371;350;26.35;33443.07
1725019323.421;350;26.18;33413.73
1725019340.387;350;23.87;33019.20
1725019340.437;350;23.87;33019.20
1725019340.487;350;23.87;33019.20
1725019340.538;350;24.37;33105.07
1725019341.039;350;25.71;33333.54
1725019341.088;350;25.97;33377.80
1725019341.138;350;25.56;33307.13
1725019341.188;350;25.15;33237.46
1725019341.238;350;25.13;33233.80
1725019341.289;350;25.13;33233.80
1725019341.338;350;25.13;33233.80
1725019341.389;350;26.01;33384.20
1725019341.439;350;30.55;34158.80
1725019341.489;350;30.28;34112.40
1725019341.539;350;24.93;33200.07
1725019341.588;350;26.76;33512.40
1725019341.639;350;25.26;33256.40
1725019341.688;350;24.78;33174.73
1725019341.739;350;25.70;33330.60
1725019341.789;350;25.70;33330.60
1725019341.838;350;25.70;33330.60
1725019341.889;350;26.72;33505.80
1725019341.938;350;29.45;33970.73
1725019341.989;350;32.00;34406.00
1725019342.038;350;32.00;34406.00
1725019342.088;350;31.73;34360.54
1725019342.138;350;32.00;34406.00
1725019342.188;350;26.73;33507.07
1725019342.238;350;32.00;34406.00
1725019342.289;350;32.00;34406.00
1725019342.339;350;32.00;34406.00
1725019342.389;350;32.00;34406.00
1725019342.439;350;27.72;33676.54
1725019342.490;350;31.45;34312.00
1725019342.539;350;26.72;33505.93
1725019342.589;350;31.42;34306.93
1725019342.640;350;29.76;34023.60
1725019342.690;350;29.76;34023.60
1725019342.739;350;29.76;34023.60
1725019342.790;350;29.76;34023.60
1725019342.839;350;31.97;34401.07
1725019342.889;350;32.00;34406.00
1725019342.940;350;32.00;34406.00
1725019342.990;350;28.67;33837.93
1725019343.040;350;28.67;33837.93
1725019343.090;350;28.67;33837.93
1725019343.141;350;28.67;33837.93
1725019343.191;350;31.18;34267.40
1725019343.242;350;27.60;33654.93
1725019343.292;350;32.00;34406.00
1725019343.342;350;32.00;34406.00
1725019343.392;350;32.00;34406.00
1725019343.442;350;32.00;34406.00
1725019343.492;350;32.00;34406.00
1725019343.542;350;32.00;34406.00
1725019343.593;350;32.00;34406.00
1725019343.642;350;32.00;34406.00
1725019343.693;350;32.00;34406.00
1725019343.743;350;32.00;34406.00
1725019343.793;350;31.02;34239.27
1725019343.843;350;27.91;33707.67
1725019343.893;350;27.91;33707.67
1725019343.943;350;27.91;33707.67
1725019343.993;350;25.87;33359.87
1725019344.043;350;31.44;34311.87
1725019344.094;350;31.44;34311.87
1725019344.143;350;31.44;34311.87
1725019344.194;350;31.44;34311.87
1725019344.246;350;32.00;34406.00
1725019344.293;350;32.00;34406.00
1725019344.343;350;31.49;34320.33
1725019344.393;350;31.49;34320.33
1725019344.443;350;31.49;34320.33
1725019344.494;350;31.49;34320.33
1725019344.543;350;28.60;33826.87
1725019344.593;350;30.20;34099.00
1725019344.643;350;29.73;34019.73
1725019344.693;350;29.73;34019.73
1725019344.744;350;29.73;34019.73
1725019344.794;350;29.73;34019.73
1725019344.844;350;32.00;34406.00
1725019344.894;350;32.00;34406.00
1725019344.944;350;30.49;34149.00
1725019344.994;350;30.49;34149.00
1725019345.044;350;30.49;34149.00
1725019345.094;350;30.49;34149.00
1725019345.146;350;30.98;34232.33
1725019345.196;350;32.00;34406.00
1725019345.246;350;26.43;33455.20
1725019345.296;350;26.43;33455.20
1725019345.345;350;26.43;33455.20
1725019345.396;350;26.43;33455.20
1725019345.445;350;32.00;34406.00
1725019345.496;350;30.46;34144.54
1725019345.546;350;31.36;34297.33
1725019345.596;350;31.36;34297.33
1725019345.646;350;31.36;34297.33
1725019345.696;350;31.36;34297.33
1725019345.746;350;32.00;34406.00
1725019345.796;350;31.00;34236.46
1725019345.846;350;31.45;34313.07
1725019345.896;350;32.00;34406.00
1725019345.946;350;28.89;33875.67
1725019345.996;350;28.89;33875.67
1725019346.046;350;28.89;33875.67
1725019346.096;350;32.00;34406.00
1725019346.146;350;32.00;34406.00
1725019346.196;350;32.00;34406.00
1725019502.909;177;40.00;33063.27
1725019502.958;177;40.00;33063.27
1725019503.009;177;40.00;33063.27
1725019503.059;177;40.00;33063.27
1725019503.109;162;40.00;33197.07
1725019503.159;166;40.00;33158.73
1725019503.209;32;40.00;34406.00
1725019503.259;32;40.00;34406.00
1725019503.310;32;40.00;34406.00
1725019503.359;32;40.00;34406.00
1725019503.408;67;40.00;34080.40
1725019503.459;141;40.00;33391.67
1725019503.509;114;40.00;33640.40
1725019503.558;114;40.00;33640.40
1725019503.610;114;40.00;33640.40
1725019503.660;47;40.00;34260.93
1725019503.710;32;40.00;34406.00
1725019503.760;69;40.00;34060.80
1725019503.809;69;40.00;34060.80
1725019503.860;69;40.00;34060.80
1725019503.910;69;40.00;34058.46
1725019503.960;128;40.00;33512.33
1725019504.010;45;40.00;34281.54
1725019504.059;52;40.00;34215.67
1725019504.109;52;40.00;34215.67
1725019504.160;52;40.00;34215.67
1725019504.209;52;40.00;34215.67
1725019504.260;32;40.00;34406.00
1725019504.310;44;40.00;34293.07
1725019504.360;78;40.00;33974.80
1725019504.410;78;40.00;33974.80
1725019504.460;78;40.00;33974.80
1725019504.509;40;40.00;34330.80
1725019504.560;166;40.00;33162.54
1725019504.610;132;40.00;33476.67
1725019504.660;123;40.00;33557.07
1725019504.711;123;40.00;33557.07
1725019504.761;123;40.00;33557.07
1725019504.811;89;40.00;33869.93
1725019504.862;32;40.00;34406.00
1725019504.912;43;40.00;34298.40
1725019504.962;43;40.00;34298.40
1725019505.011;43;40.00;34298.40
1725019505.061;43;40.00;34298.40
1725019505.112;65;40.00;34100.80
1725019505.162;131;40.00;33483.87
1725019505.212;155;40.00;33264.20
1725019505.262;155;40.00;33264.20
1725019505.312;155;40.00;33264.20
1725019505.361;118;40.00;33606.87
1725019505.412;42;40.00;34310.13
1725019505.463;42;40.00;34310.13
1725019505.512;42;40.00;34310.13
1725019505.563;42;40.00;34310.13
1725019505.612;141;40.00;33397.20
1725019505.663;111;40.00;33667.07
1725019505.713;111;40.00;33671.60
1725019505.763;111;40.00;33671.60
1725019505.813;111;40.00;33671.60
1725019505.863;111;40.00;33671.60
1725019505.913;58;40.00;34165.60
1725019505.963;58;40.00;34165.60
1725019506.013;47;40.00;34259.60
1725019506.063;47;40.00;34259.60
1725019506.114;47;40.00;34259.60
1725019506.164;47;40.00;34259.60
1725019506.214;41;40.00;34321.13
1725019506.265;93;40.00;33838.27
1725019506.315;44;40.00;34294.07
1725019506.365;44;40.00;34294.07
1725019506.415;44;40.00;34294.07
1725019506.466;34;40.00;34379.46
1725019506.515;32;40.00;34406.00
1725019506.565;32;40.00;34406.00
1725019506.615;32;40.00;34406.00
1725019506.666;32;40.00;34406.00
1725019506.715;34;40.00;34386.07
1725019506.765;32;40.00;34406.00
1725019506.815;68;40.00;34067.07
1725019506.866;35;40.00;34373.87
1725019506.916;35;40.00;34373.87
1725019506.965;35;40.00;34373.87
1725019507.015;35;40.00;34373.87
1725019507.066;136;40.00;33437.40
1725019507.115;93;40.00;33833.40
1725019507.167;55;40.00;34193.33
1725019507.217;55;40.00;34193.33
1725019507.267;55;40.00;34193.33
1725019507.318;146;40.00;33348.07
1725019507.368;102;40.00;33755.07
1725019507.417;117;40.00;33611.07
1725019507.468;151;40.00;33304.73
1725019507.517;151;40.00;33304.73
1725019507.568;151;40.00;33304.73
1725019507.618;153;40.00;33282.13
1725019507.667;100;40.00;33770.60
1725019507.717;105;40.00;33721.93
1725019507.767;74;40.00;34009.67
1725019507.818;74;40.00;34009.67
1725019507.867;74;40.00;34009.67
1725019507.917;74;40.00;34009.67
1725019507.967;32;40.00;34406.00
1725019508.017;32;40.00;34406.00
1725019508.067;42;40.00;34305.07
1725019508.117;42;40.00;34305.07
1725019508.167;42;40.00;34305.07
1725019508.218;41;40.00;34316.80
1725019508.268;32;40.00;34406.00
1725019508.318;32;40.00;34406.00
1725019508.367;32;40.00;34406.00
1725019508.417;119;40.00;33594.40
1725019508.468;119;40.00;33594.40
1725019508.518;119;40.00;33594.40
1725019508.568;135;40.00;33448.67
1725019508.618;150;40.00;33310.73
1725019508.668;150;40.00;33310.73
1725019508.719;150;40.00;33310.73
1725019508.768;150;40.00;33310.73
1725019508.819;133;40.00;33462.87
1725019508.868;32;40.00;34406.00
1725019508.918;32;40.00;34406.00
1725019508.969;32;40.00;34406.00
1725019509.019;32;40.00;34406.00
1725019509.069;101;40.00;33759.73
1725019509.118;61;40.00;34130.60
1725019509.169;60;40.00;34144.60
1725019509.218;60;40.00;34144.60
1725019509.268;60;40.00;34144.60
1725019509.319;32;40.00;34406.00
1725019509.369;85;40.00;33908.46
1725019509.419;160;40.00;33216.00
1725019509.468;103;40.00;33743.46
1725019509.519;103;40.00;33743.46
1725019509.569;103;40.00;33743.46
1725019509.618;134;40.00;33458.80
1725019509.669;102;40.00;33758.33
1725019509.718;109;40.00;33689.13
1725019509.769;71;40.00;34044.40
1725019509.819;71;40.00;34044.40
1725019509.869;71;40.00;34044.40
1725019509.919;71;40.00;34044.40
1725019509.968;32;40.00;34406.00
1725019510.019;32;40.00;34406.00
1725019510.069;51;40.00;34225.00
1725019510.119;51;40.00;34225.00
1725019510.169;51;40.00;34225.00
1725019510.219;51;40.00;34225.00
1725019510.270;36;40.00;34367.87
1725019510.320;32;40.00;34406.00
1725019525.500;177;40.00;33062.73
1725019525.594;172;40.00;33101.93
1725019525.644;172;40.00;33101.93
1725019525.694;172;40.00;33101.93
1725019525.745;172;40.00;33101.93
1725019525.794;163;40.00;33189.67
1725019525.845;169;40.00;33137.33
1725019525.894;128;40.00;33511.80
1725019525.945;102;40.00;33752.27
1725019525.995;102;40.00;33752.27
1725019526.045;102;40.00;33752.27
1725019526.095;39;40.00;34340.93
1725019526.145;134;40.00;33458.60
1725019526.195;32;40.00;34399.93
1725019526.246;32;40.00;34406.00
1725019526.295;32;40.00;34406.00
1725019526.346;32;40.00;34406.00
1725019526.396;32;40.00;34406.00
1725019526.445;111;40.00;33671.67
1725019526.495;32;40.00;34406.00
1725019526.546;57;40.00;34169.73
1725019526.596;57;40.00;34169.73
1725019526.646;57;40.00;34169.73
1725019526.695;104;40.00;33739.33
1725019526.746;41;40.00;34314.40
1725019526.795;84;40.00;33918.54
1725019526.846;84;40.00;33918.54
1725019526.895;84;40.00;33918.54
1725019526.946;61;40.00;34137.27
1725019526.996;32;40.00;34406.00
1725019527.046;125;40.00;33543.27
1725019527.096;125;40.00;33543.27
1725019527.146;125;40.00;33543.27
1725019527.196;125;40.00;33543.27
1725019527.246;34;40.00;34381.87
1725019527.299;32;40.00;34406.00
1725019527.348;108;40.00;33699.73
1725019527.398;108;40.00;33699.73
1725019527.448;108;40.00;33699.73
1725019527.498;108;40.00;33699.73
1725019527.547;32;40.00;34406.00
1725019527.597;33;40.00;34395.73
1725019527.648;52;40.00;34218.60
1725019527.697;52;40.00;34218.60
1725019527.748;52;40.00;34218.60
1725019527.798;117;40.00;33614.73
1725019527.848;32;40.00;34406.00
1725019527.898;32;40.00;34406.00
1725019527.947;32;40.00;34406.00
1725019527.998;32;40.00;34406.00
1725019528.048;32;40.00;34406.00
1725019528.098;148;40.00;33331.80
1725019528.148;32;40.00;34406.00
1725019528.198;32;40.00;34406.00
1725019528.248;32;40.00;34406.00
1725019528.298;32;40.00;34406.00
1725019528.348;32;40.00;34406.00
1725019528.398;137;40.00;33428.60
1725019528.449;65;40.00;34092.87
1725019528.498;65;40.00;34092.87
1725019528.548;65;40.00;34092.87
1725019528.599;65;40.00;34092.87
1725019528.650;40;40.00;34327.40
1725019528.699;42;40.00;34308.46
1725019528.749;107;40.00;33707.40
1725019528.800;81;40.00;33949.80
1725019528.850;81;40.00;33949.80
1725019528.901;81;40.00;33949.80
1725019528.950;49;40.00;34240.67
1725019529.002;61;40.00;34129.00
1725019529.052;99;40.00;33784.13
1725019529.102;99;40.00;33784.13
1725019529.153;99;40.00;33784.13
1725019529.202;99;40.00;33784.13
1725019529.253;32;40.00;34406.00
1725019529.302;113;40.00;33652.27
1725019529.353;38;40.00;34343.60
1725019529.402;32;40.00;34406.00
1725019529.452;32;40.00;34406.00
1725019529.504;32;40.00;34406.00
1725019529.553;32;40.00;34406.00
1725019529.604;32;40.00;34406.00
1725019529.654;83;40.00;33926.60
1725019529.705;139;40.00;33409.73
1725019529.754;139;40.00;33409.73
1725019529.806;139;40.00;33409.73
1725019529.855;139;40.00;33409.73
1725019529.906;148;40.00;33328.20
1725019529.955;32;40.00;34406.00
1725019530.006;53;40.00;34209.00
1725019530.056;53;40.00;34209.00
1725019530.106;53;40.00;34209.00
1725019530.156;142;40.00;33382.46
1725019530.207;123;40.00;33557.40
1725019530.258;127;40.00;33520.87
1725019530.307;124;40.00;33546.73
1725019530.358;124;40.00;33546.73
1725019530.407;124;40.00;33546.73
1725019530.458;32;40.00;34406.00
1725019530.507;32;40.00;34406.00
1725019530.558;68;40.00;34071.27
1725019530.608;32;40.00;34406.00
1725019530.658;32;40.00;34406.00
1725019530.707;32;40.00;34406.00
1725019530.757;32;40.00;34406.00
1725019530.808;32;40.00;34406.00
1725019530.858;32;40.00;34406.00
1725019530.908;40;40.00;34324.80
1725019530.957;40;40.00;34324.80
1725019531.008;40;40.00;34324.80
1725019531.058;40;40.00;34324.80
1725019531.108;58;40.00;34162.20
1725019531.158;101;40.00;33766.33
1725019531.207;76;40.00;33999.07
1725019531.258;32;40.00;34400.80
1725019531.307;32;40.00;34400.80
1725019531.358;32;40.00;34400.80
1725019531.408;32;40.00;34400.80
1725019531.457;51;40.00;34222.13
1725019531.507;32;40.00;34406.00
1725019531.558;60;40.00;34143.93
1725019531.608;60;40.00;34143.93
1725019531.657;60;40.00;34143.93
1725019531.708;60;40.00;34143.93
1725019531.758;66;40.00;34086.07
1725019531.808;32;40.00;34406.00
1725019531.858;125;40.00;33542.73
1725019531.908;32;40.00;34406.00
1725019531.958;32;40.00;34406.00
1725019532.009;32;40.00;34406.00
1725019532.058;32;40.00;34406.00
1725019532.109;32;40.00;34406.00
1725019532.158;155;40.00;33260.20
1725019532.209;155;40.00;33260.20
1725019532.259;155;40.00;33260.20
1725019532.309;155;40.00;33260.20
1725019532.359;58;40.00;34161.20
1725019532.409;42;40.00;34312.60
1725019532.459;32;40.00;34406.00
1725019532.508;32;40.00;34406.00
1725019532.559;32;40.00;34406.00
1725019532.609;32;40.00;34406.00
1725019532.659;32;40.00;34406.00
1725019532.709;48;40.00;34257.00
1725019532.759;146;40.00;33342.87
1725019532.809;52;40.00;34217.54
1725019532.860;52;40.00;34217.54
1725019532.909;52;40.00;34217.54
1725019532.959;52;40.00;34217.54
1725019533.009;117;40.00;33618.80
1725019533.060;99;40.00;33778.73
1725019533.110;120;40.00;33590.93
1725019533.159;120;40.00;33590.93
1725019533.209;120;40.00;33590.93
1725019533.259;108;40.00;33698.93
1725019533.311;32;40.00;34406.00
1725019533.360;40;40.00;34330.40
1725019548.507;180;40.00;33036.00
1725019548.558;180;40.00;33032.73
1725019548.608;180;40.00;33032.73
1725019548.658;180;40.00;33032.73
1725019548.708;166;40.00;33161.13
1725019548.758;118;40.00;33607.27
1725019548.808;65;40.00;34094.40
1725019548.858;65;40.00;34094.40
1725019548.908;65;40.00;34094.40
1725019548.959;69;40.00;34057.67
1725019549.009;32;40.00;34406.00
1725019549.059;108;40.00;33698.20
1725019549.109;34;40.00;34382.67
1725019549.159;34;40.00;34382.67
1725019549.209;34;40.00;34382.67
1725019549.259;35;40.00;34373.33
1725019549.309;73;40.00;34018.27
1725019549.358;32;40.00;34402.13
1725019549.409;32;40.00;34406.00
1725019549.458;32;40.00;34406.00
1725019549.509;32;40.00;34406.00
1725019549.559;57;40.00;34172.07
1725019549.609;68;40.00;34070.93
1725019549.659;33;40.00;34388.40
1725019549.709;46;40.00;34273.54
1725019549.759;46;40.00;34273.54
1725019549.809;46;40.00;34273.54
1725019549.859;46;40.00;34273.54
1725019549.909;123;40.00;33556.46
1725019549.959;43;40.00;34300.07
1725019550.009;90;40.00;33865.13
1725019550.059;100;40.00;33772.54
1725019550.109;100;40.00;33772.54
1725019550.159;100;40.00;33772.54
1725019550.209;65;40.00;34093.00
1725019550.259;107;40.00;33707.00
1725019550.309;136;40.00;33437.46
1725019550.359;136;40.00;33437.46
1725019550.409;136;40.00;33437.46
1725019550.459;84;40.00;33921.07
1725019550.509;32;40.00;34406.00
1725019550.559;32;40.00;34406.00
1725019550.609;32;40.00;34406.00
1725019550.659;32;40.00;34406.00
1725019550.709;32;40.00;34406.00
1725019550.759;53;40.00;34208.07
1725019550.809;53;40.00;34208.07
1725019550.859;53;40.00;34208.07
1725019550.909;53;40.00;34208.07
1725019550.959;145;40.00;33354.20
1725019551.010;116;40.00;33623.46
1725019551.059;129;40.00;33508.40
1725019551.110;129;40.00;33508.40
1725019551.159;129;40.00;33508.40
1725019551.210;129;40.00;33508.40
1725019551.259;73;40.00;34020.33
1725019551.310;119;40.00;33594.80
1725019551.359;107;40.00;33704.67
1725019551.409;107;40.00;33704.67
1725019551.461;107;40.00;33704.67
1725019551.511;111;40.00;33667.80
1725019551.560;109;40.00;33684.93
1725019551.611;32;40.00;34406.00
1725019551.661;113;40.00;33649.20
1725019551.710;113;40.00;33649.20
1725019551.760;113;40.00;33649.20
1725019551.810;123;40.00;33563.54
1725019551.861;160;40.00;33220.00
1725019551.911;115;40.00;33637.60
1725019551.961;115;40.00;33637.60
1725019552.011;115;40.00;33637.60
1725019552.060;115;40.00;33637.60
1725019552.110;117;40.00;33614.80
1725019552.162;32;40.00;34406.00
1725019552.211;43;40.00;34296.93
1725019552.262;32;40.00;34406.00
1725019552.312;32;40.00;34406.00
1725019552.361;32;40.00;34406.00
1725019552.411;60;40.00;34143.46
1725019552.463;130;40.00;33495.20
1725019552.512;130;40.00;33495.20
1725019552.562;130;40.00;33495.20
1725019552.612;77;40.00;33987.13
1725019552.664;32;40.00;34406.00
1725019552.713;32;40.00;34406.00
1725019552.763;32;40.00;34406.00
1725019552.814;32;40.00;34404.40
1725019552.863;32;40.00;34406.00
1725019552.915;32;40.00;34406.00
1725019552.964;32;40.00;34406.00
1725019553.016;42;40.00;34305.60
1725019553.065;153;40.00;33281.93
1725019553.115;98;40.00;33794.93
1725019553.166;98;40.00;33794.93
1725019553.216;98;40.00;33794.93
1725019553.266;98;40.00;33794.93
1725019553.318;144;40.00;33369.67
1725019553.368;148;40.00;33324.87
1725019553.417;148;40.00;33324.87
1725019553.467;148;40.00;33324.87
1725019553.518;32;40.00;34406.00
1725019553.568;146;40.00;33344.46
1725019553.618;146;40.00;33344.46
1725019553.667;146;40.00;33344.46
1725019553.718;32;40.00;34406.00
1725019553.768;98;40.00;33794.13
1725019553.817;52;40.00;34220.07
1725019553.870;90;40.00;33861.27
1725019553.918;90;40.00;33861.27
1725019553.968;90;40.00;33861.27
1725019554.019;32;40.00;34406.00
1725019554.069;32;40.00;34406.00
1725019554.119;91;40.00;33855.54
1725019554.168;52;40.00;34213.60
1725019554.219;52;40.00;34213.60
1725019554.269;52;40.00;34213.60
1725019554.319;52;40.00;34213.60
1725019554.369;32;40.00;34406.00
1725019554.419;62;40.00;34122.93
1725019554.469;54;40.00;34198.54
1725019554.519;159;40.00;33222.60
1725019554.569;126;40.00;33529.40
1725019554.620;126;40.00;33529.40
1725019554.670;126;40.00;33529.40
1725019554.719;123;40.00;33562.60
1725019554.769;160;40.00;33216.40
1725019554.820;95;40.00;33817.00
1725019554.870;32;40.00;34406.00
1725019554.920;32;40.00;34406.00
1725019554.969;32;40.00;34406.00
1725019555.020;161;40.00;33211.13
1725019555.069;55;40.00;34187.13
1725019555.119;32;40.00;34406.00
1725019555.170;32;40.00;34406.00
1725019555.220;32;40.00;34406.00
1725019555.270;32;40.00;34406.00
1725019555.320;105;40.00;33725.46
1725019555.370;65;40.00;34095.46
1725019692.119;500;23.99;33038.73
1725019692.170;500;23.99;33038.73
1725019692.220;500;23.99;33038.73
1725019692.270;500;24.46;33119.80
1725019692.320;500;31.67;34350.93
1725019692.370;500;31.67;34350.93
1725019692.420;500;31.67;34350.93
1725019692.470;500;32.00;34406.00
1725019692.520;500;31.98;34402.93
1725019692.569;500;31.98;34402.93
1725019692.620;500;31.98;34402.93
1725019692.669;500;29.38;33958.73
1725019692.720;500;29.84;34037.73
1725019692.769;500;29.84;34037.73
1725019692.819;500;29.84;34037.73
1725019692.870;500;32.00;34406.00
1725019692.920;500;29.86;34041.93
1725019692.970;500;29.86;34041.93
1725019693.019;500;29.86;34041.93
1725019693.071;500;29.86;34041.93
1725019693.120;500;32.00;34406.00
1725019693.172;500;32.00;34406.00
1725019693.222;500;29.37;33958.54
1725019693.272;500;29.37;33958.54
1725019693.322;500;29.37;33958.54
1725019693.371;500;32.00;34406.00
1725019693.421;500;32.00;34406.00
1725019693.472;500;32.00;34406.00
1725019693.522;500;32.00;34406.00
1725019693.572;500;32.00;34406.00
1725019693.622;500;30.27;34111.13
1725019693.673;500;29.97;34060.87
1725019693.723;500;29.97;34060.87
1725019693.772;500;29.97;34060.87
1725019693.824;500;29.97;34060.46
1725019693.874;500;32.00;34406.00
1725019693.923;500;32.00;34406.00
1725019693.973;500;32.00;34406.00
1725019694.024;500;32.00;34406.00
1725019694.073;500;30.53;34154.87
1725019694.124;500;30.04;34071.93
1725019694.174;500;30.04;34071.93
1725019694.225;500;30.04;34071.93
1725019694.274;500;30.04;34071.93
1725019694.324;500;32.00;34406.00
1725019694.374;500;31.79;34371.27
1725019694.425;500;31.79;34371.27
1725019694.474;500;31.79;34371.27
1725019694.525;500;31.79;34371.27
1725019694.574;500;30.87;34213.54
1725019694.625;500;30.03;34070.07
1725019694.675;500;30.03;34070.07
1725019694.725;500;30.03;34070.07
1725019694.775;500;30.03;34070.07
1725019694.826;500;32.00;34406.00
1725019694.875;500;30.82;34205.27
1725019694.927;500;30.92;34222.00
1725019694.976;500;30.92;34222.00
1725019695.027;500;30.92;34222.00
1725019695.076;500;29.51;33981.07
1725019695.127;500;32.00;34406.00
1725019695.176;500;32.00;34406.00
1725019695.226;500;32.00;34406.00
1725019695.277;500;29.42;33966.93
1725019695.328;500;31.98;34403.07
1725019695.378;500;31.98;34403.07
1725019695.427;500;31.98;34403.07
1725019695.478;500;31.98;34403.07
1725019695.529;500;32.00;34406.00
1725019695.578;500;32.00;34406.00
1725019695.628;500;31.90;34389.46
1725019695.679;500;31.90;34389.46
1725019695.728;500;31.90;34389.46
1725019695.779;500;32.00;34406.00
1725019695.829;500;32.00;34406.00
1725019695.879;500;31.59;34336.46
1725019695.929;500;31.76;34366.07
1725019695.978;500;31.76;34366.07
1725019696.028;500;31.76;34366.07
1725019696.080;500;30.08;34078.80
1725019696.132;500;32.00;34406.00
1725019696.181;500;31.88;34386.80
1725019696.232;500;31.88;34386.80
1725019696.282;500;31.88;34386.80
1725019696.332;500;32.00;34406.00
1725019696.381;500;31.97;34401.33
1725019696.432;500;29.48;33975.67
1725019696.481;500;29.48;33975.67
1725019696.532;500;29.48;33975.67
1725019696.582;500;32.00;34406.00
1725019696.632;500;31.77;34367.60
1725019696.681;500;31.77;34367.60
1725019696.732;500;31.77;34367.60
1725019696.781;500;31.77;34367.60
1725019696.832;500;29.17;33924.20
1725019696.882;500;32.00;34406.00
1725019696.932;500;32.00;34406.00
1725019696.981;500;32.00;34406.00
1725019697.032;500;32.00;34406.00
1725019697.081;500;31.90;34390.27
1725019697.132;500;29.54;33987.33
1725019697.183;500;32.00;34406.00
1725019697.234;500;32.00;34406.00
1725019697.283;500;32.00;34406.00
1725019697.334;500;32.00;34406.00
1725019697.383;500;29.01;33896.67
1725019697.433;500;31.95;34398.13
1725019697.484;500;31.95;34398.13
1725019697.535;500;31.95;34398.13
1725019697.584;500;31.95;34398.13
1725019697.635;500;31.15;34262.00
1725019697.685;500;32.00;34406.00
1725019697.735;500;32.00;34406.00
1725019697.785;500;32.00;34406.00
1725019697.835;500;32.00;34406.00
1725019697.885;500;32.00;34406.00
1725019697.935;500;32.00;34406.00
1725019697.984;500;32.00;34406.00
1725019698.035;500;32.00;34406.00
1725019698.085;500;32.00;34406.00
1725019698.135;500;32.00;34406.00
1725019698.185;500;32.00;34406.00
1725019712.092;500;23.94;33030.67
1725019712.293;500;24.08;33055.00
1725019712.343;500;24.08;33055.00
1725019712.393;500;24.08;33055.00
1725019712.545;500;32.00;34406.00
1725019712.746;500;31.09;34252.00
1725019712.795;500;32.00;34406.00
1725019712.845;500;26.63;33489.67
1725019712.895;500;26.63;33489.67
1725019712.945;500;26.63;33489.67
1725019712.995;500;26.85;33527.67
1725019713.046;500;29.44;33969.60
1725019713.096;500;29.44;33969.60
1725019713.145;500;29.44;33969.60
1725019713.196;500;29.44;33969.60
1725019713.246;500;32.00;34406.00
1725019713.296;500;32.00;34406.00
1725019713.346;500;28.33;33780.40
1725019713.396;500;29.76;34025.07
1725019713.446;500;29.76;34025.07
1725019713.497;500;29.76;34025.07
1725019713.547;500;29.76;34025.07
1725019713.597;500;32.00;34406.00
1725019713.648;500;32.00;34406.00
1725019713.698;500;32.00;34406.00
1725019713.748;500;32.00;34406.00
1725019713.797;500;32.00;34406.00
1725019713.848;500;32.00;34406.00
1725019713.898;500;28.88;33873.73
1725019713.948;500;31.28;34282.87
1725019713.998;500;29.21;33931.00
1725019714.047;500;29.21;33931.00
1725019714.097;500;29.21;33931.00
1725019714.153;500;32.00;34406.00
1725019714.197;500;31.94;34396.27
1725019714.247;500;32.00;34406.00
1725019714.298;500;32.00;34406.00
1725019714.348;500;32.00;34406.00
1725019714.398;500;31.11;34254.67
1725019714.447;500;31.97;34401.07
1725019714.498;500;31.97;34401.07
1725019714.547;500;31.97;34401.07
1725019714.597;500;31.97;34401.07
1725019714.648;500;32.00;34406.00
1725019714.698;500;31.11;34255.54
1725019714.748;500;31.73;34360.00
1725019714.798;500;31.73;34360.00
1725019714.847;500;31.73;34360.00
1725019714.898;500;32.00;34406.00
1725019714.948;500;31.84;34379.67
1725019714.998;500;31.84;34379.67
1725019715.048;500;31.84;34379.67
1725019715.098;500;31.59;34336.00
1725019715.148;500;29.09;33910.73
1725019715.197;500;28.74;33850.07
1725019715.247;500;28.74;33850.07
1725019715.297;500;28.74;33850.07
1725019715.348;500;31.47;34316.46
1725019715.399;500;29.89;34046.27
1725019715.448;500;32.00;34406.00
1725019715.499;500;32.00;34406.00
1725019715.548;500;32.00;34406.00
1725019715.599;500;31.62;34341.87
1725019715.649;500;31.91;34392.00
1725019715.699;500;31.91;34392.00
1725019715.749;500;31.91;34392.00
1725019715.798;500;31.91;34392.00
1725019715.849;500;31.91;34392.00
1725019715.899;500;31.86;34382.27
1725019715.949;500;28.96;33887.93
1725019715.999;500;29.05;33903.27
1725019716.048;500;31.25;34278.33
1725019716.099;500;31.25;34278.33
1725019716.149;500;31.25;34278.33
1725019716.199;500;31.25;34278.33
1725019716.250;500;32.00;34406.00
1725019716.299;500;29.24;33936.07
1725019716.349;500;32.00;34406.00
1725019716.400;500;32.00;34406.00
1725019716.451;500;32.00;34406.00
1725019716.501;500;29.05;33902.93
1725019716.551;500;30.19;34098.27
1725019716.601;500;29.61;33998.00
1725019716.651;500;29.61;33998.00
1725019716.702;500;29.61;33998.00
1725019716.751;500;30.51;34152.67
1725019716.801;500;32.00;34406.00
1725019716.852;500;31.74;34362.13
1725019716.902;500;31.74;34362.13
1725019716.953;500;31.74;34362.13
1725019717.003;500;32.00;34406.00
1725019717.053;500;29.22;33931.33
1725019717.103;500;29.11;33912.87
1725019717.152;500;29.11;33912.87
1725019717.211;500;29.11;33912.87
1725019717.257;500;30.63;34171.93
1725019717.308;500;31.62;34341.40
1725019717.357;500;31.53;34326.93
1725019717.408;500;31.53;34326.93
1725019717.458;500;31.53;34326.93
1725019717.509;500;32.00;34406.00
1725019717.559;500;29.82;34034.60
1725019717.608;500;29.82;34034.60
1725019717.659;500;29.82;34034.60
1725019717.709;500;29.44;33969.67
1725019717.759;500;32.00;34406.00
1725019717.809;500;32.00;34406.00
1725019717.858;500;32.00;34406.00
1725019717.909;500;29.24;33935.07
1725019717.959;500;32.00;34406.00
1725019718.009;500;32.00;34406.00
1725019718.058;500;32.00;34406.00
1725019718.109;500;30.78;34199.20
1725019718.159;500;31.81;34373.87
1725019718.209;500;31.81;34373.87
1725019718.259;500;31.81;34373.87
1725019718.309;500;31.81;34373.87
1725019718.359;500;28.81;33862.07
1725019718.409;500;28.97;33890.20
1725019732.110;500;24.40;33110.20
1725019732.160;500;24.48;33123.80
1725019732.210;500;24.48;33123.80
1725019732.260;500;24.11;33060.67
1725019732.311;500;29.27;33940.00
1725019732.361;500;32.00;34406.00
1725019732.411;500;32.00;34406.00
1725019732.460;500;32.00;34406.00
1725019732.512;500;29.58;33993.20
1725019732.561;500;30.55;34158.67
1725019732.611;500;30.55;34158.67
1725019732.661;500;30.55;34158.67
1725019732.712;500;31.21;34272.40
1725019732.762;500;32.00;34406.00
1725019732.812;500;32.00;34406.00
1725019732.861;500;32.00;34406.00
1725019732.912;500;32.00;34406.00
1725019732.962;500;30.09;34080.93
1725019733.011;500;32.00;34406.00
1725019733.062;500;32.00;34406.00
1725019733.112;500;32.00;34406.00
1725019733.161;500;32.00;34406.00
1725019733.211;500;32.00;34406.00
1725019733.262;500;31.63;34343.93
1725019733.312;500;31.63;34343.93
1725019733.362;500;31.63;34343.93
1725019733.411;500;31.63;34343.93
1725019733.462;500;32.00;34406.00
1725019733.512;500;31.46;34314.07
1725019733.562;500;29.19;33927.73
1725019733.612;500;29.19;33927.73
1725019733.662;500;29.19;33927.73
1725019733.712;500;29.47;33975.46
1725019733.762;500;29.16;33921.33
1725019733.812;500;27.15;33579.20
1725019733.862;500;27.15;33579.20
1725019733.912;500;27.15;33579.20
1725019733.962;500;31.04;34242.33
1725019734.012;500;28.54;33816.20
1725019734.062;500;28.54;33816.20
1725019734.112;500;28.54;33816.20
1725019734.162;500;32.00;34406.00
1725019734.212;500;32.00;34406.00
1725019734.261;500;32.00;34406.00
1725019734.312;500;32.00;34406.00
1725019734.362;500;32.00;34406.00
1725019734.413;500;32.00;34406.00
1725019734.462;500;31.95;34398.60
1725019734.512;500;31.73;34360.93
1725019734.562;500;31.73;34360.93
1725019734.612;500;31.73;34360.93
1725019734.663;500;32.00;34406.00
1725019734.713;500;32.00;34406.00
1725019734.762;500;32.00;34406.00
1725019734.812;500;32.00;34406.00
1725019734.862;500;29.55;33988.73
1725019734.913;500;29.42;33966.87
1725019734.962;500;29.42;33966.87
1725019735.013;500;29.42;33966.87
1725019735.063;500;28.69;33841.80
1725019735.113;500;28.69;33841.80
1725019735.163;500;28.69;33841.80
1725019735.214;500;28.69;33841.80
1725019735.263;500;29.80;34030.67
1725019735.314;500;31.01;34238.46
1725019735.364;500;32.00;34406.00
1725019735.413;500;32.00;34406.00
1725019735.464;500;32.00;34406.00
1725019735.514;500;28.54;33816.60
1725019735.563;500;30.28;34113.20
1725019735.614;500;28.87;33872.46
1725019735.663;500;28.87;33872.46
1725019735.713;500;28.87;33872.46
1725019735.763;500;28.87;33872.46
1725019735.815;500;30.74;34191.00
1725019735.864;500;29.12;33914.73
1725019735.915;500;30.15;34091.13
1725019735.965;500;30.15;34091.13
1725019736.015;500;30.15;34091.13
1725019736.065;500;30.15;34091.13
1725019736.115;500;32.00;34406.00
1725019736.164;500;32.00;34406.00
1725019736.215;500;32.00;34406.00
1725019736.265;500;30.29;34115.27
1725019736.315;500;30.29;34115.27
1725019736.365;500;30.29;34115.27
1725019736.416;500;31.31;34289.33
1725019736.466;500;28.90;33877.00
1725019736.516;500;32.00;34406.00
1725019736.566;500;32.00;34406.00
1725019736.616;500;32.00;34406.00
1725019736.666;500;32.00;34406.00
1725019736.716;500;29.03;33900.07
1725019736.766;500;30.69;34183.60
1725019736.816;500;28.25;33766.40
1725019736.868;500;28.25;33766.40
1725019736.918;500;28.25;33766.40
1725019736.968;500;30.22;34102.07
1725019737.017;500;32.00;34406.00
1725019737.070;500;32.00;34406.00
1725019737.120;500;32.00;34406.00
1725019737.170;500;32.00;34406.00
1725019737.221;500;32.00;34406.00
1725019737.270;500;31.92;34393.60
1725019737.320;500;32.00;34406.00
1725019737.370;500;32.00;34406.00
1725019737.420;500;32.00;34406.00
1725019737.471;500;32.00;34406.00
1725019737.521;500;32.00;34406.00
1725019737.570;500;32.00;34406.00
1725019737.621;500;32.00;34406.00
1725019737.670;500;32.00;34406.00
1725019737.722;500;29.55;33988.87
1725019737.771;500;28.66;33836.07
1725019737.821;500;28.66;33836.07
1725019737.871;500;28.66;33836.07
1725019737.922;500;28.66;33836.07
1725019737.971;500;29.07;33905.67
1725019738.022;500;29.07;33905.67
1725019738.071;500;29.07;33905.67
1725019738.122;500;30.04;34071.73
1725019738.172;500;31.87;34383.60
1725019738.221;500;31.92;34392.87
1725019738.271;500;31.92;34392.87
1725019738.322;500;32.00;34406.00
1725019859.495;177;20.00;33062.73
1725019859.545;177;20.00;33062.73
1725019859.596;177;20.00;33062.73
1725019859.646;179;20.00;33038.07
1725019859.696;121;20.00;33579.80
1725019859.746;121;20.00;33579.80
1725019859.795;121;20.00;33579.80
1725019859.845;110;20.00;33681.54
1725019859.896;32;20.00;34406.00
1725019859.946;72;20.00;34029.27
1725019859.995;72;20.00;34029.27
1725019860.047;72;20.00;34029.27
1725019860.096;72;20.00;34029.27
1725019860.146;32;20.00;34406.00
1725019860.197;32;20.00;34406.00
1725019860.248;32;20.00;34406.00
1725019860.297;32;20.00;34406.00
1725019860.347;32;20.00;34406.00
1725019860.398;69;20.00;34056.27
1725019860.447;42;20.00;34309.87
1725019860.497;32;20.00;34397.87
1725019860.547;32;20.00;34397.87
1725019860.598;32;20.00;34397.87
1725019860.648;111;20.00;33668.00
1725019860.698;39;20.00;34333.33
1725019860.748;73;20.00;34025.27
1725019860.798;40;20.00;34326.13
1725019860.849;40;20.00;34326.13
1725019860.898;40;20.00;34326.13
1725019860.948;40;20.00;34326.13
1725019860.998;32;20.00;34406.00
1725019861.048;32;20.00;34406.00
1725019861.098;144;20.00;33363.46
1725019861.148;144;20.00;33363.46
1725019861.198;144;20.00;33363.46
1725019861.248;144;20.00;33363.46
1725019861.298;162;20.00;33199.13
1725019861.351;156;20.00;33252.33
1725019861.401;32;20.00;34406.00
1725019861.451;32;20.00;34406.00
1725019861.501;32;20.00;34406.00
1725019861.551;32;20.00;34406.00
1725019861.601;32;20.00;34406.00
1725019861.651;32;20.00;34406.00
1725019861.701;36;20.00;34362.07
1725019861.752;71;20.00;34039.80
1725019861.801;147;20.00;33341.33
1725019861.851;147;20.00;33341.33
1725019861.901;147;20.00;33341.33
1725019861.951;64;20.00;34109.00
1725019862.001;32;20.00;34406.00
1725019862.052;103;20.00;33740.07
1725019862.102;103;20.00;33740.07
1725019862.151;103;20.00;33740.07
1725019862.201;32;20.00;34402.60
1725019862.251;64;20.00;34104.87
1725019862.301;79;20.00;33968.80
1725019862.351;79;20.00;33968.80
1725019862.401;79;20.00;33968.80
1725019862.453;41;20.00;34321.33
1725019862.503;34;20.00;34380.46
1725019862.553;62;20.00;34119.93
1725019862.603;62;20.00;34119.93
1725019862.653;62;20.00;34119.93
1725019862.703;62;20.00;34119.93
1725019862.753;32;20.00;34406.00
1725019862.803;32;20.00;34406.00
1725019862.854;103;20.00;33744.80
1725019862.903;103;20.00;33744.80
1725019862.954;103;20.00;33744.80
1725019863.003;119;20.00;33599.46
1725019863.054;41;20.00;34314.67
1725019863.103;32;20.00;34406.00
1725019863.154;32;20.00;34406.00
1725019863.205;32;20.00;34406.00
1725019863.255;103;20.00;33741.67
1725019863.305;32;20.00;34401.07
1725019863.356;32;20.00;34401.07
1725019863.406;32;20.00;34401.07
1725019863.455;133;20.00;33466.13
1725019863.506;162;20.00;33199.27
1725019863.556;162;20.00;33199.27
1725019863.606;162;20.00;33199.27
1725019863.656;162;20.00;33199.27
1725019863.707;43;20.00;34298.40
1725019863.757;80;20.00;33959.87
1725019863.807;80;20.00;33959.87
1725019863.857;80;20.00;33959.87
1725019863.908;80;20.00;33959.87
1725019863.957;147;20.00;33339.54
1725019864.007;63;20.00;34114.00
1725019864.058;64;20.00;34107.93
1725019864.108;45;20.00;34279.80
1725019864.157;45;20.00;34279.80
1725019864.209;45;20.00;34279.80
1725019864.258;117;20.00;33610.54
1725019864.309;160;20.00;33216.73
1725019864.358;62;20.00;34126.73
1725019864.410;62;20.00;34126.73
1725019864.460;62;20.00;34126.73
1725019864.510;62;20.00;34126.73
1725019864.560;137;20.00;33427.00
1725019864.610;146;20.00;33344.33
1725019864.659;147;20.00;33341.40
1725019864.711;147;20.00;33341.40
1725019864.760;147;20.00;33341.40
1725019864.810;138;20.00;33418.80
1725019864.860;95;20.00;33823.13
1725019864.910;65;20.00;34094.54
1725019864.962;68;20.00;34070.93
1725019865.011;68;20.00;34070.93
1725019865.062;68;20.00;34070.93
1725019865.111;32;20.00;34406.00
1725019865.161;40;20.00;34327.46
1725019865.212;87;20.00;33894.80
1725019865.261;87;20.00;33894.80
1725019865.312;87;20.00;33894.80
1725019865.361;87;20.00;33894.80
1725019865.411;156;20.00;33256.00
1725019865.461;49;20.00;34243.40
1725019865.512;115;20.00;33635.54
1725019865.561;115;20.00;33635.54
1725019865.611;115;20.00;33635.54
1725019865.662;115;20.00;33635.54
1725019865.711;115;20.00;33635.54
1725019865.761;43;20.00;34302.93
1725019865.811;118;20.00;33609.33
1725019865.862;117;20.00;33612.67
1725019865.912;61;20.00;34129.40
1725019865.962;61;20.00;34129.40
1725019866.012;61;20.00;34129.40
1725019866.061;61;20.00;34129.40
1725019866.111;61;20.00;34129.40
1725019866.163;155;20.00;33260.00
1725019866.213;156;20.00;33258.27
1725019866.263;102;20.00;33753.46
1725019866.313;121;20.00;33575.67
1725019881.703;170;20.00;33127.73
1725019881.904;36;20.00;34366.13
1725019881.954;170;20.00;33127.87
1725019882.004;170;20.00;33127.87
1725019882.054;170;20.00;33127.87
1725019882.105;129;20.00;33504.80
1725019882.154;102;20.00;33753.27
1725019882.205;102;20.00;33753.27
1725019882.255;102;20.00;33753.27
1725019882.305;32;20.00;34406.00
1725019882.355;48;20.00;34256.40
1725019882.405;48;20.00;34256.40
1725019882.455;48;20.00;34256.40
1725019882.504;48;20.00;34256.40
1725019882.555;48;20.00;34256.40
1725019882.605;96;20.00;33807.67
1725019882.655;32;20.00;34406.00
1725019882.706;46;20.00;34276.80
1725019882.755;46;20.00;34276.80
1725019882.806;46;20.00;34276.80
1725019882.856;46;20.00;34276.80
1725019882.906;123;20.00;33560.46
1725019882.956;32;20.00;34406.00
1725019883.005;37;20.00;34356.54
1725019883.055;37;20.00;34356.54
1725019883.106;37;20.00;34356.54
1725019883.156;75;20.00;34003.33
1725019883.206;82;20.00;33943.13
1725019883.256;82;20.00;33943.13
1725019883.306;82;20.00;33943.13
1725019883.357;82;20.00;33943.13
1725019883.407;32;20.00;34406.00
1725019883.457;100;20.00;33768.73
1725019883.508;103;20.00;33740.67
1725019883.557;103;20.00;33740.67
1725019883.608;103;20.00;33740.67
1725019883.658;32;20.00;34406.00
1725019883.708;32;20.00;34406.00
1725019883.758;32;20.00;34406.00
1725019883.808;32;20.00;34406.00
1725019883.859;32;20.00;34406.00
1725019883.908;140;20.00;33399.33
1725019883.959;44;20.00;34291.00
1725019884.009;44;20.00;34291.00
1725019884.060;44;20.00;34291.00
1725019884.109;44;20.00;34291.00
1725019884.159;32;20.00;34406.00
1725019884.209;128;20.00;33512.33
1725019884.259;174;20.00;33084.93
1725019884.310;174;20.00;33084.93
1725019884.360;174;20.00;33084.93
1725019884.410;108;20.00;33702.87
1725019884.460;110;20.00;33675.60
1725019884.510;32;20.00;34406.00
1725019884.561;32;20.00;34406.00
1725019884.611;32;20.00;34406.00
1725019884.662;32;20.00;34406.00
1725019884.711;74;20.00;34013.07
1725019884.761;151;20.00;33303.27
1725019884.811;140;20.00;33401.87
1725019884.862;140;20.00;33401.87
1725019884.913;140;20.00;33401.87
1725019884.963;32;20.00;34406.00
1725019885.013;32;20.00;34406.00
1725019885.062;32;20.00;34406.00
1725019885.112;32;20.00;34406.00
1725019885.163;32;20.00;34406.00
1725019885.213;42;20.00;34310.67
1725019885.263;32;20.00;34406.00
1725019885.312;32;20.00;34406.00
1725019885.363;32;20.00;34406.00
1725019885.413;32;20.00;34406.00
1725019885.464;57;20.00;34167.93
1725019885.513;170;20.00;33125.67
1725019885.563;158;20.00;33233.33
1725019885.614;158;20.00;33233.33
1725019885.664;158;20.00;33233.33
1725019885.714;136;20.00;33436.07
1725019885.763;60;20.00;34143.87
1725019885.814;32;20.00;34406.00
1725019885.864;32;20.00;34406.00
1725019885.914;42;20.00;34311.13
1725019885.965;42;20.00;34311.13
1725019886.015;42;20.00;34311.13
1725019886.064;42;20.00;34311.13
1725019886.114;128;20.00;33510.27
1725019886.166;43;20.00;34300.67
1725019886.215;154;20.00;33274.40
1725019886.265;154;20.00;33274.40
1725019886.315;154;20.00;33274.40
1725019886.366;54;20.00;34195.60
1725019886.415;32;20.00;34406.00
1725019886.466;130;20.00;33495.87
1725019886.515;100;20.00;33775.60
1725019886.565;100;20.00;33775.60
1725019886.616;100;20.00;33775.60
1725019886.667;32;20.00;34406.00
1725019886.717;32;20.00;34406.00
1725019886.767;32;20.00;34406.00
1725019886.817;32;20.00;34406.00
1725019886.867;32;20.00;34406.00
1725019886.917;149;20.00;33315.54
1725019886.967;116;20.00;33628.40
1725019887.017;176;20.00;33069.80
1725019887.067;176;20.00;33069.80
1725019887.118;176;20.00;33069.80
1725019887.168;176;20.00;33069.80
1725019887.218;89;20.00;33874.46
1725019887.268;32;20.00;34406.00
1725019887.318;32;20.00;34406.00
1725019887.368;32;20.00;34406.00
1725019887.419;32;20.00;34406.00
1725019887.468;118;20.00;33605.87
1725019887.518;63;20.00;34115.40
1725019887.569;38;20.00;34342.13
1725019887.618;52;20.00;34215.20
1725019887.669;52;20.00;34215.20
1725019887.718;52;20.00;34215.20
1725019887.768;108;20.00;33701.13
1725019887.819;149;20.00;33320.33
1725019887.869;173;20.00;33099.46
1725019887.919;32;20.00;34406.00
1725019887.969;32;20.00;34406.00
1725019888.019;32;20.00;34406.00
1725019888.069;32;20.00;34406.00
1725019888.119;38;20.00;34350.93
1725019888.169;70;20.00;34051.13
1725019888.219;46;20.00;34268.93
1725019888.269;46;20.00;34268.93
1725019888.319;46;20.00;34268.93
1725019888.369;157;20.00;33247.93
1725019888.420;127;20.00;33526.40
1725019888.469;159;20.00;33225.46
1725019888.519;159;20.00;33225.46
1725019888.569;159;20.00;33225.46
1725019888.619;159;20.00;33225.46
1725019888.669;125;20.00;33537.73
1725019888.719;108;20.00;33694.87
1725019888.769;108;20.00;33694.87
1725019888.821;108;20.00;33694.87
1725019888.870;108;20.00;33694.87
1725019888.920;67;20.00;34075.00
1725019888.971;35;20.00;34370.13
1725019905.555;170;20.00;33120.40
1725019905.605;170;20.00;33120.40
1725019905.656;170;20.00;33120.40
1725019905.706;170;20.00;33120.40
1725019905.756;174;20.00;33083.46
1725019905.807;113;20.00;33648.33
1725019905.858;68;20.00;34071.73
1725019905.907;68;20.00;34071.73
1725019905.958;68;20.00;34071.73
1725019906.008;68;20.00;34071.73
1725019906.057;68;20.00;34071.73
1725019906.108;32;20.00;34406.00
1725019906.158;69;20.00;34060.13
1725019906.208;149;20.00;33320.40
1725019906.258;65;20.00;34092.67
1725019906.307;65;20.00;34092.67
1725019906.357;65;20.00;34092.67
1725019906.408;92;20.00;33842.20
1725019906.457;137;20.00;33425.33
1725019906.508;43;20.00;34302.27
1725019906.558;36;20.00;34366.07
1725019906.608;36;20.00;34366.07
1725019906.658;36;20.00;34366.07
1725019906.707;102;20.00;33753.40
1725019906.758;125;20.00;33544.07
1725019906.808;125;20.00;33544.07
1725019906.858;125;20.00;33544.07
1725019906.908;148;20.00;33327.33
1725019906.958;119;20.00;33592.00
1725019907.008;100;20.00;33769.20
1725019907.058;91;20.00;33854.46
1725019907.108;91;20.00;33854.46
1725019907.158;91;20.00;33854.46
1725019907.208;109;20.00;33688.00
1725019907.258;163;20.00;33189.20
1725019907.308;163;20.00;33189.20
1725019907.358;163;20.00;33189.20
1725019907.408;163;20.00;33189.20
1725019907.458;106;20.00;33713.87
1725019907.509;116;20.00;33626.46
1725019907.558;83;20.00;33932.27
1725019907.609;83;20.00;33932.27
1725019907.659;83;20.00;33932.27
1725019907.709;141;20.00;33394.40
1725019907.759;158;20.00;33238.07
1725019907.809;158;20.00;33238.07
1725019907.859;158;20.00;33238.07
1725019907.909;158;20.00;33238.07
1725019907.959;57;20.00;34172.93
1725019908.010;130;20.00;33494.87
1725019908.061;48;20.00;34255.60
1725019908.111;48;20.00;34255.60
1725019908.161;48;20.00;34255.60
1725019908.210;48;20.00;34255.60
1725019908.260;120;20.00;33591.60
1725019908.311;32;20.00;34405.07
1725019908.361;78;20.00;33975.93
1725019908.411;78;20.00;33975.93
1725019908.462;78;20.00;33975.93
1725019908.512;78;20.00;33975.93
1725019908.563;124;20.00;33549.33
1725019908.612;103;20.00;33744.40
1725019908.663;124;20.00;33546.93
1725019908.714;124;20.00;33546.93
1725019908.764;124;20.00;33546.93
1725019908.813;124;20.00;33546.93
1725019908.864;104;20.00;33739.00
1725019908.914;75;20.00;34006.33
1725019908.965;88;20.00;33884.73
1725019909.014;88;20.00;33884.73
1725019909.065;88;20.00;33884.73
1725019909.114;58;20.00;34160.27
1725019909.164;39;20.00;34334.67
1725019909.215;43;20.00;34302.00
1725019909.265;32;20.00;34406.00
1725019909.315;32;20.00;34406.00
1725019909.366;32;20.00;34406.00
1725019909.415;59;20.00;34154.87
1725019909.466;92;20.00;33845.20
1725019909.516;127;20.00;33521.67
1725019909.567;127;20.00;33521.67
1725019909.617;127;20.00;33521.67
1725019909.667;127;20.00;33521.67
1725019909.717;63;20.00;34116.00
1725019909.768;139;20.00;33409.33
1725019909.818;139;20.00;33409.33
1725019909.868;139;20.00;33409.33
1725019909.917;93;20.00;33835.20
1725019909.969;60;20.00;34141.13
1725019910.018;50;20.00;34234.67
1725019910.069;50;20.00;34234.67
1725019910.118;50;20.00;34234.67
1725019910.169;50;20.00;34234.67
1725019910.219;32;20.00;34406.00
1725019910.268;113;20.00;33656.00
1725019910.318;107;20.00;33703.13
1725019910.369;107;20.00;33703.13
1725019910.418;107;20.00;33703.13
1725019910.469;63;20.00;34114.00
1725019910.519;140;20.00;33398.73
1725019910.568;154;20.00;33272.87
1725019910.619;115;20.00;33637.27
1725019910.669;115;20.00;33637.27
1725019910.718;115;20.00;33637.27
1725019910.768;115;20.00;33637.27
1725019910.819;142;20.00;33382.07
1725019910.869;33;20.00;34394.40
1725019910.919;33;20.00;34391.73
1725019910.969;33;20.00;34391.73
1725019911.018;33;20.00;34391.73
1725019911.068;33;20.00;34391.73
1725019911.119;43;20.00;34298.07
1725019911.169;40;20.00;34323.73
1725019911.219;40;20.00;34323.73
1725019911.269;40;20.00;34323.73
1725019911.319;40;20.00;34323.73
1725019911.368;86;20.00;33901.54
1725019911.419;32;20.00;34406.00
1725019911.469;102;20.00;33755.00
1725019911.519;102;20.00;33755.00
1725019911.569;102;20.00;33755.00
1725019911.619;102;20.00;33755.00
1725019911.670;102;20.00;33755.00
1725019911.720;62;20.00;34123.46
1725019911.770;155;20.00;33264.87
1725019911.820;115;20.00;33633.73
1725019911.870;116;20.00;33627.54
1725019911.919;116;20.00;33627.54
1725019911.970;116;20.00;33627.54
1725019912.020;44;20.00;34290.46
1725019912.071;118;20.00;33606.07
1725019912.120;32;20.00;34406.00
1725019912.171;32;20.00;34406.00
1725019912.221;32;20.00;34406.00
1725019912.271;32;20.00;34406.00
1725019912.322;97;20.00;33797.73
1725019912.371;158;20.00;33232.67
1725019912.422;177;20.00;33055.07
1725019912.472;177;20.00;33055.07
1725019912.522;177;20.00;33055.07
1725019912.572;177;20.00;33055.07
1725019912.623;73;20.00;34019.54
1725019912.673;97;20.00;33801.80
1725020083.923;50;24.45;33118.27
1725020084.126;50;24.32;33096.13
1725020084.175;50;24.82;33181.73
1725020084.225;50;24.82;33181.73
1725020084.275;50;24.82;33181.73
1725020084.325;50;24.82;33181.73
1725020084.375;50;32.00;34406.00
1725020084.425;50;32.00;34406.00
1725020084.475;50;32.00;34406.00
1725020084.525;50;32.00;34406.00
1725020084.576;50;32.00;34406.00
1725020084.626;50;26.21;33418.80
1725020084.675;50;26.80;33518.40
1725020084.725;50;28.25;33765.73
1725020084.775;50;31.34;34293.67
1725020084.825;50;31.34;34293.67
1725020084.876;50;31.34;34293.67
1725020084.926;50;32.00;34406.00
1725020084.976;50;28.72;33845.93
1725020085.026;50;26.71;33503.27
1725020085.076;50;26.71;33503.27
1725020085.126;50;26.71;33503.27
1725020085.176;50;31.09;34251.67
1725020085.226;50;32.00;34406.00
1725020085.276;50;32.00;34406.00
1725020085.327;50;31.87;34384.87
1725020085.376;50;31.87;34384.87
1725020085.427;50;31.87;34384.87
1725020085.476;50;31.98;34402.40
1725020085.528;50;30.26;34110.00
1725020085.578;50;28.77;33855.60
1725020085.627;50;29.76;34024.40
1725020085.677;50;29.76;34024.40
1725020085.728;50;29.76;34024.40
1725020085.777;50;29.76;34024.40
1725020085.827;50;29.76;34024.40
1725020085.877;50;32.00;34406.00
1725020085.928;50;31.42;34307.73
1725020085.977;50;32.00;34406.00
1725020086.029;50;32.00;34406.00
1725020086.078;50;25.62;33318.33
1725020086.128;50;25.62;33318.33
1725020086.178;50;25.62;33318.33
1725020086.229;50;25.62;33318.33
1725020086.278;50;31.65;34346.67
1725020086.328;50;30.82;34205.20
1725020086.379;50;28.54;33815.46
1725020086.429;50;30.89;34216.80
1725020086.479;50;30.89;34216.80
1725020086.529;50;30.89;34216.80
1725020086.579;50;30.89;34216.80
1725020086.629;50;28.02;33726.67
1725020086.680;50;31.01;34238.40
1725020086.729;50;31.99;34404.13
1725020086.779;50;31.99;34404.13
1725020086.830;50;31.99;34404.13
1725020086.879;50;31.88;34385.33
1725020086.934;50;29.63;34001.93
1725020086.982;50;24.77;33173.07
1725020087.033;50;25.30;33262.20
1725020087.082;50;25.30;33262.20
1725020087.132;50;25.30;33262.20
1725020087.183;50;31.79;34371.60
1725020087.232;50;26.21;33418.33
1725020087.282;50;31.79;34370.80
1725020087.332;50;31.79;34370.80
1725020087.382;50;31.79;34370.80
1725020087.433;50;29.18;33925.13
1725020087.482;50;25.12;33232.13
1725020087.533;50;25.12;33232.13
1725020087.583;50;25.12;33232.13
1725020087.633;50;25.12;33232.13
1725020087.683;50;31.91;34391.73
1725020087.733;50;32.00;34406.00
1725020087.783;50;30.23;34104.60
1725020087.833;50;30.23;34104.60
1725020087.883;50;30.23;34104.60
1725020087.933;50;25.85;33356.40
1725020087.983;50;30.79;34199.87
1725020088.034;50;30.79;34199.87
1725020088.084;50;30.79;34199.87
1725020088.134;50;30.79;34199.87
1725020088.185;50;29.55;33988.27
1725020088.235;50;29.55;33988.27
1725020088.285;50;29.55;33988.27
1725020088.335;50;30.21;34101.80
1725020088.385;50;32.00;34406.00
1725020088.435;50;32.00;34406.00
1725020088.484;50;32.00;34406.00
1725020088.535;50;31.98;34403.73
1725020088.585;50;30.78;34197.60
1725020088.635;50;25.74;33338.87
1725020088.685;50;25.74;33338.87
1725020088.735;50;25.74;33338.87
1725020088.786;50;25.74;33338.87
1725020088.836;50;29.18;33925.13
1725020088.888;50;24.53;33130.93
1725020088.936;50;26.11;33400.93
1725020088.988;50;30.11;34084.67
1725020089.037;50;30.11;34084.67
1725020089.087;50;30.11;34084.67
1725020089.137;50;32.00;34406.00
1725020089.188;50;32.00;34406.00
1725020089.238;50;31.93;34393.93
1725020089.288;50;31.93;34393.93
1725020089.338;50;31.93;34393.93
1725020089.388;50;31.93;34393.93
1725020089.439;50;31.62;34342.40
1725020089.489;50;31.62;34341.07
1725020089.539;50;32.00;34406.00
1725020089.588;50;32.00;34406.00
1725020089.638;50;32.00;34406.00
1725020089.688;50;32.00;34406.00
1725020089.739;50;31.33;34292.40
1725020089.789;50;31.95;34397.27
1725020089.839;50;32.00;34406.00
1725020089.888;50;25.45;33289.33
1725020089.939;50;25.45;33289.33
1725020089.988;50;25.45;33289.33
1725020090.039;50;26.34;33441.07
1725020090.088;50;26.27;33428.54
1725020090.139;50;26.57;33480.33
1725020090.188;50;26.91;33538.00
1725020090.239;50;26.91;33538.00
1725020090.288;50;26.91;33538.00
1725020090.339;50;24.55;33134.54
1725020090.389;50;25.82;33352.60
1725020090.439;50;32.00;34406.00
1725020090.489;50;32.00;34406.00
1725020090.539;50;32.00;34406.00
1725020090.588;50;32.00;34406.00
1725020090.639;50;29.95;34056.93
1725020090.689;50;29.42;33966.54
1725020090.739;50;30.94;34226.46
1725020090.790;50;30.85;34210.00
1725020090.839;50;30.85;34210.00
1725020090.890;50;30.85;34210.00
1725020090.939;50;30.85;34210.00
1725020090.990;50;32.00;34406.00
1725020091.041;50;32.00;34406.00
1725020091.090;50;29.12;33914.20
1725020106.452;50;23.87;33018.07
1725020106.502;50;24.56;33136.33
1725020106.552;50;24.38;33106.27
1725020106.602;50;24.54;33133.33
1725020106.652;50;24.54;33133.33
1725020106.703;50;24.54;33133.33
1725020106.753;50;24.31;33093.67
1725020106.802;50;27.82;33693.67
1725020106.854;50;31.75;34364.00
1725020106.903;50;32.00;34406.00
1725020106.954;50;32.00;34406.00
1725020107.004;50;32.00;34406.00
1725020107.054;50;32.00;34406.00
1725020107.104;50;29.45;33971.46
1725020107.154;50;31.38;34301.33
1725020107.204;50;31.05;34245.13
1725020107.255;50;31.05;34245.13
1725020107.305;50;31.05;34245.13
1725020107.355;50;28.89;33876.07
1725020107.406;50;30.13;34087.54
1725020107.456;50;25.70;33331.07
1725020107.506;50;26.64;33491.87
1725020107.555;50;26.64;33491.87
1725020107.605;50;26.64;33491.87
1725020107.658;50;28.45;33800.93
1725020107.707;50;30.84;34209.20
1725020107.757;50;31.40;34303.60
1725020107.807;50;28.49;33808.33
1725020107.857;50;28.49;33808.33
1725020107.908;50;28.49;33808.33
1725020107.957;50;31.28;34283.54
1725020108.008;50;28.43;33797.13
1725020108.058;50;25.53;33302.93
1725020108.108;50;25.53;33302.93
1725020108.159;50;25.53;33302.93
1725020108.209;50;25.53;33302.93
1725020108.258;50;31.42;34308.00
1725020108.308;50;30.21;34101.73
1725020108.358;50;27.16;33580.33
1725020108.408;50;27.16;33580.33
1725020108.459;50;27.16;33580.33
1725020108.508;50;26.29;33432.33
1725020108.558;50;28.42;33796.33
1725020108.609;50;25.47;33292.46
1725020108.659;50;26.28;33431.07
1725020108.709;50;26.28;33431.07
1725020108.758;50;26.28;33431.07
1725020108.808;50;31.16;34263.60
1725020108.859;50;27.62;33658.54
1725020108.908;50;30.20;34099.27
1725020108.959;50;30.42;34136.07
1725020109.008;50;30.42;34136.07
1725020109.058;50;30.42;34136.07
1725020109.108;50;32.00;34406.00
1725020109.159;50;31.52;34323.87
1725020109.209;50;27.19;33586.40
1725020109.259;50;27.51;33639.60
1725020109.309;50;31.73;34361.33
1725020109.360;50;31.73;34361.33
1725020109.410;50;31.73;34361.33
1725020109.460;50;31.73;34361.33
1725020109.509;50;31.76;34365.87
1725020109.560;50;31.76;34365.87
1725020109.610;50;25.13;33233.46
1725020109.660;50;27.02;33556.54
1725020109.710;50;27.02;33556.54
1725020109.760;50;27.02;33556.54
1725020109.810;50;27.02;33556.54
1725020109.860;50;27.02;33556.54
1725020109.910;50;32.00;34406.00
1725020109.960;50;32.00;34406.00
1725020110.010;50;29.33;33950.13
1725020110.061;50;29.33;33950.13
1725020110.111;50;29.33;33950.13
1725020110.161;50;32.00;34406.00
1725020110.211;50;31.98;34402.67
1725020110.261;50;28.51;33810.80
1725020110.311;50;28.61;33828.67
1725020110.361;50;28.61;33828.67
1725020110.411;50;28.61;33828.67
1725020110.461;50;32.00;34406.00
1725020110.511;50;32.00;34406.00
1725020110.561;50;32.00;34406.00
1725020110.612;50;32.00;34406.00
1725020110.661;50;32.00;34406.00
1725020110.711;50;25.96;33375.67
1725020110.761;50;25.96;33375.67
1725020110.813;50;26.30;33434.07
1725020110.862;50;26.30;33434.07
1725020110.913;50;26.30;33434.07
1725020110.963;50;26.30;33434.07
1725020111.012;50;30.31;34118.07
1725020111.063;50;31.34;34293.87
1725020111.112;50;26.14;33405.93
1725020111.163;50;26.14;33405.93
1725020111.213;50;26.14;33405.93
1725020111.262;50;26.14;33405.93
1725020111.313;50;27.38;33617.20
1725020111.363;50;32.00;34406.00
1725020111.413;50;28.26;33767.40
1725020111.463;50;28.26;33767.40
1725020111.513;50;28.26;33767.40
1725020111.563;50;30.56;34161.54
1725020111.613;50;32.00;34406.00
1725020111.663;50;32.00;34406.00
1725020111.713;50;31.03;34241.33
1725020111.763;50;31.03;34241.33
1725020111.813;50;31.03;34241.33
1725020111.864;50;27.80;33689.46
1725020111.913;50;30.04;34072.87
1725020111.964;50;28.23;33763.87
1725020112.013;50;30.62;34170.60
1725020112.063;50;30.62;34170.60
1725020112.114;50;30.62;34170.60
1725020112.164;50;28.85;33868.27
1725020112.214;50;30.22;34102.00
1725020112.264;50;31.58;34334.80
1725020112.315;50;26.68;33498.46
1725020112.365;50;26.68;33498.46
1725020112.415;50;26.68;33498.46
1725020112.466;50;32.00;34406.00
1725020112.515;50;31.99;34405.54
1725020112.565;50;31.99;34405.54
1725020112.615;50;31.99;34405.54
1725020112.666;50;30.83;34207.67
1725020112.715;50;31.75;34364.07
1725020112.766;50;31.95;34397.87
1725020112.816;50;31.95;34397.87
1725020112.866;50;31.95;34397.87
1725020112.915;50;31.95;34397.87
1725020112.966;50;32.00;34406.00
1725020113.017;50;30.40;34132.73
1725020113.068;50;30.40;34132.73
1725020113.117;50;30.40;34132.73
1725020113.167;50;26.22;33419.40
1725020113.218;50;26.08;33395.60
1725020113.267;50;28.19;33756.60
1725020113.317;50;28.19;33756.60
1725020113.368;50;28.19;33756.60
1725020113.418;50;28.19;33756.60
1725020113.468;50;27.39;33619.13
1725020113.518;50;24.95;33203.27
1725020113.568;50;25.63;33319.80
1725020113.618;50;25.63;33319.80
1725020113.667;50;25.63;33319.80
1725020113.717;50;25.63;33319.80
1725020113.768;50;27.21;33589.46
1725020113.818;50;28.06;33734.60
1725020113.867;50;28.63;33832.13
1725020113.918;50;28.63;33832.13
1725020113.969;50;28.63;33832.13
1725020114.018;50;28.63;33832.13
1725020114.068;50;28.86;33871.40
1725020114.118;50;29.09;33910.13
1725020114.168;50;25.09;33227.87
1725020129.624;50;24.26;33086.33
1725020129.723;50;24.17;33070.27
1725020129.774;50;24.17;33070.27
1725020129.824;50;24.17;33070.27
1725020129.874;50;23.98;33037.00
1725020129.924;50;24.35;33101.07
1725020129.975;50;25.98;33379.67
1725020130.024;50;25.98;33379.67
1725020130.075;50;25.98;33379.67
1725020130.124;50;25.98;33379.67
1725020130.175;50;32.00;34406.00
1725020130.224;50;30.14;34088.33
1725020130.274;50;30.14;34088.33
1725020130.324;50;30.14;34088.33
1725020130.376;50;27.34;33611.73
1725020130.425;50;26.68;33498.67
1725020130.475;50;26.67;33497.00
1725020130.525;50;26.95;33543.87
1725020130.575;50;26.95;33543.87
1725020130.626;50;26.95;33543.87
1725020130.676;50;28.86;33871.00
1725020130.725;50;32.00;34406.00
1725020130.776;50;32.00;34406.00
1725020130.825;50;31.45;34312.00
1725020130.877;50;31.45;34312.00
1725020130.927;50;31.45;34312.00
1725020130.977;50;31.45;34312.00
1725020131.028;50;32.00;34406.00
1725020131.078;50;31.94;34396.54
1725020131.127;50;32.00;34406.00
1725020131.178;50;32.00;34406.00
1725020131.228;50;32.00;34406.00
1725020131.278;50;25.89;33363.93
1725020131.327;50;25.85;33357.60
1725020131.377;50;31.99;34405.33
1725020131.428;50;31.69;34353.67
1725020131.478;50;31.69;34353.67
1725020131.528;50;31.69;34353.67
1725020131.578;50;25.75;33339.46
1725020131.628;50;31.49;34319.80
1725020131.678;50;31.49;34319.80
1725020131.727;50;31.49;34319.80
1725020131.777;50;31.85;34381.60
1725020131.827;50;32.00;34406.00
1725020131.877;50;32.00;34406.00
1725020131.928;50;32.00;34406.00
1725020131.978;50;32.00;34406.00
1725020132.028;50;26.25;33424.54
1725020132.077;50;32.00;34406.00
1725020132.127;50;32.00;34406.00
1725020132.178;50;32.00;34406.00
1725020132.228;50;32.00;34406.00
1725020132.278;50;25.91;33366.27
1725020132.328;50;28.83;33866.33
1725020132.378;50;26.80;33518.60
1725020132.428;50;26.80;33518.60
1725020132.478;50;26.80;33518.60
1725020132.528;50;26.80;33518.60
1725020132.578;50;29.30;33946.20
1725020132.628;50;25.45;33287.93
1725020132.678;50;25.45;33287.93
1725020132.728;50;28.82;33863.80
1725020132.778;50;28.82;33863.80
1725020132.828;50;28.82;33863.80
1725020132.878;50;28.82;33863.80
1725020132.928;50;24.92;33198.73
1725020132.978;50;27.15;33578.80
1725020133.028;50;29.09;33910.67
1725020133.077;50;26.20;33416.40
1725020133.127;50;26.20;33416.40
1725020133.178;50;26.20;33416.40
1725020133.228;50;26.20;33416.40
1725020133.279;50;26.51;33469.40
1725020133.328;50;32.00;34406.00
1725020133.378;50;32.00;34406.00
1725020133.429;50;28.43;33797.20
1725020133.478;50;28.43;33797.20
1725020133.529;50;28.43;33797.20
1725020133.579;50;28.43;33797.20
1725020133.628;50;32.00;34406.00
1725020133.685;50;32.00;34406.00
1725020133.729;50;28.86;33870.60
1725020133.778;50;28.86;33870.60
1725020133.828;50;28.86;33870.60
1725020133.879;50;28.12;33743.67
1725020133.929;50;30.35;34125.80
1725020133.979;50;31.97;34402.20
1725020134.030;50;31.97;34402.20
1725020134.080;50;31.97;34402.20
1725020134.130;50;31.97;34402.20
1725020134.181;50;29.84;34038.27
1725020134.231;50;29.31;33946.67
1725020134.282;50;29.31;33946.67
1725020134.331;50;29.31;33946.67
1725020134.382;50;31.08;34250.00
1725020134.432;50;31.38;34300.54
1725020134.482;50;31.61;34340.67
1725020134.533;50;31.61;34340.67
1725020134.583;50;31.61;34340.67
1725020134.633;50;31.61;34340.67
1725020134.683;50;25.94;33371.93
1725020134.734;50;32.00;34406.00
1725020134.783;50;32.00;34406.00
1725020134.835;50;32.00;34406.00
1725020134.884;50;32.00;34406.00
1725020134.934;50;32.00;34406.00
1725020134.985;50;29.64;34004.27
1725020135.034;50;32.00;34406.00
1725020135.085;50;32.00;34406.00
1725020135.134;50;26.02;33386.67
1725020135.184;50;26.02;33386.67
1725020135.234;50;26.02;33386.67
1725020135.284;50;26.02;33386.67
1725020135.334;50;28.77;33855.54
1725020135.386;50;32.00;34406.00
1725020135.436;50;29.24;33934.87
1725020135.485;50;29.24;33934.87
1725020135.536;50;29.24;33934.87
1725020135.587;50;32.00;34406.00
1725020135.637;50;25.62;33317.80
1725020135.693;50;25.62;33317.80
1725020135.739;50;28.08;33737.40
1725020135.789;50;28.08;33737.40
1725020135.838;50;28.08;33737.40
1725020135.889;50;28.08;33737.40
1725020135.939;50;31.92;34392.40
1725020135.989;50;31.92;34392.40
1725020136.039;50;30.50;34150.67
1725020136.089;50;29.09;33909.33
1725020136.139;50;28.82;33863.73
1725020136.189;50;28.82;33863.73
1725020136.239;50;28.82;33863.73
1725020136.289;50;31.88;34385.27
1725020136.340;50;30.32;34119.40
1725020136.390;50;24.37;33103.60
1725020136.440;50;32.00;34406.00
1725020136.490;50;32.00;34406.00
1725020136.541;50;32.00;34406.00
1725020136.590;50;29.52;33982.80
1725020136.640;50;31.74;34362.93
1725020136.695;50;30.29;34114.40
1725020136.742;50;27.21;33589.73
1725020136.792;50;27.21;33589.73
1725020136.842;50;27.21;33589.73
1725020136.894;50;25.21;33248.27
1725020136.945;50;25.94;33372.87
1725020136.994;50;24.32;33095.67
1725020285.040;91;20.00;34171.33
1725020285.290;94;20.00;33917.73
1725020285.339;91;20.00;34145.33
1725020285.390;91;20.00;34145.33
1725020285.440;91;20.00;34145.33
1725020285.490;91;20.00;34145.33
1725020285.590;32;20.00;38358.93
1725020285.640;42;20.00;37655.87
1725020285.691;42;20.00;37655.87
1725020285.741;42;20.00;37655.87
1725020285.792;42;20.00;37655.87
1725020285.841;93;20.00;34019.54
1725020285.891;81;20.00;34897.93
1725020285.942;55;20.00;36729.60
1725020285.992;89;20.00;34294.33
1725020286.042;89;20.00;34294.33
1725020286.092;89;20.00;34294.33
1725020286.143;86;20.00;34516.07
1725020286.243;52;20.00;36930.27
1725020286.293;45;20.00;37453.60
1725020286.344;45;20.00;37453.60
1725020286.394;45;20.00;37453.60
1725020286.444;85;20.00;34556.67
1725020286.493;61;20.00;36311.67
1725020286.544;61;20.00;36311.67
1725020286.593;61;20.00;36311.67
1725020286.643;61;20.00;36311.67
1725020286.744;91;20.00;34179.33
1725020286.793;91;20.00;34179.33
1725020286.844;91;20.00;34179.33
1725020286.893;91;20.00;34179.33
1725020286.943;60;20.00;36375.20
1725020286.993;42;20.00;37685.67
1725020287.044;56;20.00;36681.27
1725020287.093;56;20.00;36681.27
1725020287.143;56;20.00;36681.27
1725020287.194;56;20.00;36681.27
1725020287.244;59;20.00;36476.27
1725020287.294;88;20.00;34396.67
1725020287.594;79;20.00;34989.87
1725020288.997;97;20.00;33760.40
1725020289.048;97;20.00;33760.40
1725020289.098;97;20.00;33760.40
1725020289.148;97;20.00;33741.54
1725020289.198;92;20.00;34077.87
1725020289.448;62;20.00;36242.93
1725020289.499;87;20.00;34413.07
1725020289.548;93;20.00;34011.80
1725020289.599;93;20.00;34011.80
1725020289.648;93;20.00;34011.80
1725020289.702;93;20.00;34011.80
1725020289.749;97;20.00;33700.93
1725020289.798;97;20.00;33715.73
1725020289.850;71;20.00;35621.00
1725020289.899;71;20.00;35621.00
1725020289.950;71;20.00;35621.00
1725020289.999;71;20.00;35621.00
1725020290.050;76;20.00;35261.40
1725020290.150;36;20.00;38104.93
1725020290.199;35;20.00;38173.46
1725020290.250;35;20.00;38173.46
1725020290.299;35;20.00;38173.46
1725020290.349;32;20.00;38382.80
1725020290.401;39;20.00;37894.07
1725020290.452;39;20.00;37894.07
1725020290.501;39;20.00;37894.07
1725020290.552;39;20.00;37894.07
1725020290.602;60;20.00;36390.54
1725020290.653;82;20.00;34803.80
1725020290.702;71;20.00;35594.07
1725020290.753;71;20.00;35594.07
1725020290.804;71;20.00;35594.07
1725020290.854;71;20.00;35594.07
1725020290.906;74;20.00;35347.80
1725020290.954;74;20.00;35347.80
1725020291.005;36;20.00;38068.80
1725020291.055;36;20.00;38068.80
1725020291.105;36;20.00;38068.80
1725020291.155;36;20.00;38068.80
1725020291.206;32;20.00;38375.73
1725020291.256;74;20.00;35399.67
1725020291.306;94;20.00;33932.73
1725020291.356;87;20.00;34429.54
1725020291.406;87;20.00;34429.54
1725020291.456;87;20.00;34429.54
1725020291.506;59;20.00;36444.00
1725020291.556;41;20.00;37762.87
1725020291.606;32;20.00;38383.67
1725020307.221;95;20.00;33884.54
1725020307.271;98;20.00;33671.40
1725020307.322;98;20.00;33671.40
1725020307.371;98;20.00;33671.40
1725020307.672;32;20.00;38386.60
1725020308.022;90;20.00;34204.20
1725020308.072;98;20.00;33682.93
1725020308.273;97;20.00;33754.87
1725020308.323;32;20.00;38350.60
1725020308.374;41;20.00;37722.46
1725020308.674;98;20.00;33683.20
1725020308.723;98;20.00;33683.20
1725020308.773;98;20.00;33683.20
1725020308.823;98;20.00;33683.20
1725020308.924;30;20.00;38543.67
1725020308.974;30;20.00;38543.67
1725020309.023;30;20.00;38543.67
1725020309.073;30;20.00;38543.67
1725020309.174;49;20.00;37175.80
1725020309.223;49;20.00;37175.80
1725020309.273;49;20.00;37175.80
1725020309.324;49;20.00;37175.80
1725020309.374;47;20.00;37297.40
1725020309.424;36;20.00;38067.67
1725020309.473;36;20.00;38067.67
1725020309.523;36;20.00;38067.67
1725020309.574;36;20.00;38067.67
1725020309.624;83;20.00;34759.40
1725020309.675;36;20.00;38063.20
1725020309.725;50;20.00;37120.54
1725020309.776;50;20.00;37120.54
1725020309.825;50;20.00;37120.54
1725020309.876;50;20.00;37120.54
1725020310.277;98;20.00;33692.13
1725020310.327;98;20.00;33692.13
1725020310.377;98;20.00;33692.13
1725020310.527;74;20.00;35375.54
1725020310.578;74;20.00;35375.54
1725020310.627;74;20.00;35375.54
1725020310.677;74;20.00;35375.54
1725020310.978;67;20.00;35869.67
1725020328.752;96;20.00;33801.07
1725020328.802;96;20.00;33801.07
1725020328.853;96;20.00;33801.07
1725020328.953;36;20.00;38106.27
1725020329.002;36;20.00;38106.27
1725020329.052;36;20.00;38106.27
1725020329.102;39;20.00;37874.40
1725020329.154;38;20.00;37957.20
1725020329.204;38;20.00;37957.20
1725020329.254;38;20.00;37957.20
1725020329.304;57;20.00;36602.46
1725020329.354;87;20.00;34424.13
1725020329.404;87;20.00;34424.13
1725020329.455;87;20.00;34424.13
1725020329.506;89;20.00;34300.07
1725020329.555;39;20.00;37862.13
1725020329.605;40;20.00;37771.00
1725020329.655;40;20.00;37771.00
1725020329.705;40;20.00;37771.00
1725020329.757;40;20.00;37771.00
1725020329.807;31;20.00;38469.40
1725020329.857;38;20.00;37932.33
1725020329.907;38;20.00;37932.33
1725020329.957;38;20.00;37932.33
1725020330.007;38;20.00;37932.33
1725020330.057;47;20.00;37303.60
1725020330.107;86;20.00;34521.13
1725020330.157;78;20.00;35076.27
1725020330.208;78;20.00;35076.27
1725020330.257;78;20.00;35076.27
1725020330.307;61;20.00;36292.00
1725020330.358;31;20.00;38480.60
1725020330.408;52;20.00;36949.07
1725020330.458;52;20.00;36949.07
1725020330.508;52;20.00;36949.07
1725020330.558;50;20.00;37084.67
1725020330.608;47;20.00;37323.46
1725020330.663;70;20.00;35691.46
1725020330.709;50;20.00;37110.67
1725020330.959;64;20.00;36074.13
1725020331.009;70;20.00;35654.46
1725020331.260;75;20.00;35332.54
1725020331.309;94;20.00;33924.27
1725020333.417;96;20.00;33832.00
1725020438.073;200;20.95;33721.73
1725020438.374;200;21.54;34135.46
1725020438.424;200;21.54;34135.46
1725020438.474;200;21.54;34135.46
1725020438.524;200;21.54;34135.46
1725020438.573;200;21.36;34009.60
1725020438.625;200;26.47;37616.60
1725020438.675;200;23.43;35475.60
1725020438.725;200;23.43;35475.60
1725020438.774;200;23.43;35475.60
1725020438.826;200;27.34;38232.27
1725020438.876;200;24.30;36084.40
1725020438.926;200;24.30;36084.40
1725020438.977;200;24.30;36084.40
1725020439.027;200;22.15;34571.20
1725020439.077;200;27.46;38318.87
1725020439.128;200;27.46;38318.87
1725020439.178;200;27.46;38318.87
1725020439.227;200;27.46;38318.87
1725020439.277;200;23.41;35459.07
1725020439.328;200;25.83;37166.93
1725020439.379;200;25.76;37117.60
1725020439.428;200;25.76;37117.60
1725020439.478;200;25.76;37117.60
1725020439.528;200;25.76;37117.60
1725020439.578;200;27.40;38278.20
1725020439.629;200;22.96;35142.60
1725020439.679;200;27.19;38127.87
1725020439.729;200;27.19;38127.87
1725020439.779;200;27.19;38127.87
1725020439.828;200;27.46;38317.80
1725020439.879;200;27.44;38306.73
1725020439.929;200;27.44;38306.73
1725020439.979;200;27.44;38306.73
1725020440.030;200;27.44;38306.73
1725020440.079;200;26.42;37584.27
1725020440.136;200;24.77;36417.00
1725020440.180;200;23.52;35532.54
1725020440.230;200;23.52;35532.54
1725020440.281;200;23.52;35532.54
1725020440.331;200;23.52;35532.54
1725020440.381;200;25.89;37212.27
1725020440.431;200;24.93;36533.20
1725020440.480;200;24.92;36524.07
1725020440.530;200;24.92;36524.07
1725020440.581;200;24.92;36524.07
1725020440.631;200;24.92;36524.07
1725020440.680;200;24.92;36524.07
1725020440.731;200;23.97;35854.40
1725020440.781;200;23.55;35555.33
1725020440.831;200;24.32;36104.13
1725020440.881;200;23.74;35693.93
1725020440.930;200;23.74;35693.93
1725020440.981;200;23.74;35693.93
1725020441.031;200;21.75;34284.60
1725020441.081;200;24.76;36413.67
1725020441.132;200;20.99;33751.93
1725020441.182;200;21.76;34296.13
1725020441.232;200;21.76;34296.13
1725020441.283;200;21.76;34296.13
1725020441.333;200;24.63;36318.07
1725020441.383;200;23.57;35569.00
1725020441.583;200;22.83;35051.60
1725020441.633;200;23.07;35216.80
1725020441.683;200;21.50;34112.20
1725020441.733;200;21.50;34112.20
1725020441.784;200;21.50;34112.20
1725020441.884;200;27.51;38352.54
1725020441.934;200;26.84;37878.67
1725020441.984;200;26.84;37878.67
1725020442.034;200;26.84;37878.67
1725020442.084;200;26.87;37904.67
1725020442.184;200;23.18;35297.27
1725020442.234;200;23.18;35297.27
1725020442.284;200;23.18;35297.27
1725020442.335;200;23.18;35297.27
1725020442.385;200;22.68;34941.07
1725020442.485;200;20.99;33750.20
1725020442.536;200;20.99;33750.20
1725020442.586;200;20.99;33750.20
1725020442.636;200;20.99;33750.20
1725020442.686;200;25.64;37035.87
1725020442.787;200;27.07;38041.00
1725020442.837;200;27.07;38041.00
1725020442.888;200;27.07;38041.00
1725020442.937;200;27.07;38041.00
1725020442.987;200;22.13;34557.13
1725020443.039;200;23.65;35626.13
1725020443.089;200;20.98;33741.13
