UnixTimestamp;Microseconds;MilliAmpere;BaseValue
1725379097.773;500;1.00
1725379097.821;500;1.00
1725379097.871;500;1.00
1725379097.922;500;1.00
1725379097.971;500;1.00
1725379098.022;500;1.00
1725379098.072;500;1.00
1725379098.123;500;1.00
1725379098.173;500;1.00
1725379098.223;500;1.00
1725379098.273;500;1.00
1725379098.323;500;1.00
1725379098.373;500;1.00
1725379098.423;500;1.00
1725379098.473;500;1.00
1725379098.523;500;1.00
1725379098.573;500;1.00
1725379098.623;500;1.00
1725379098.673;500;1.00
1725379098.723;500;1.00
1725379098.773;500;1.00
1725379098.823;500;1.00
1725379098.873;500;1.00
1725379098.923;500;1.00
1725379098.973;500;1.00
1725379099.023;500;1.00
1725379099.074;500;1.00
1725379099.123;500;1.00
1725379099.174;500;1.00
1725379099.224;500;1.00
1725379099.274;500;1.00
1725379099.324;500;1.00
1725379099.376;500;1.00
1725379099.426;500;1.00
1725379099.476;500;1.00
1725379099.526;500;1.00
1725379099.576;500;1.00
1725379099.626;500;1.00
1725379099.676;500;1.00
1725379099.726;500;1.00
1725379099.776;500;1.00
1725379099.826;500;1.00
1725379099.876;500;1.00
1725379099.926;500;1.00
1725379099.976;500;1.00
1725379100.026;500;1.00
1725379100.076;500;1.00
1725379100.126;500;1.00
1725379100.177;500;1.00
1725379100.227;500;1.00
1725379100.277;500;1.00
1725379100.327;500;1.00
1725379100.378;500;1.00
1725379100.427;500;1.00
1725379100.478;500;1.00
1725379100.527;500;1.00
1725379100.578;500;1.00
1725379100.627;500;1.00
1725379100.678;500;1.00
1725379100.728;500;1.00
1725379100.779;500;1.00
1725379100.828;500;1.00
1725379100.879;500;1.00
1725379100.928;500;1.00
1725379100.980;500;1.00
1725379101.030;500;1.00
1725379101.081;500;1.00
1725379114.277;1;40.00
1725379114.327;1;40.00
1725379114.377;1;40.00
1725379114.427;1;40.00
1725379114.477;1;40.00
1725379114.528;1;40.00
1725379114.577;1;40.00
1725379114.627;1;40.00
1725379114.677;1;40.00
1725379114.728;1;40.00
1725379114.777;1;40.00
1725379114.828;1;40.00
1725379114.877;1;40.00
1725379114.927;1;40.00
1725379114.977;1;40.00
1725379115.027;1;40.00
1725379115.077;1;40.00
1725379115.127;1;40.00
1725379115.177;1;40.00
1725379115.227;1;40.00
1725379115.278;1;40.00
1725379115.328;1;40.00
1725379115.377;1;40.00
1725379115.427;1;40.00
1725379115.477;1;40.00
1725379115.527;1;40.00
1725379115.577;1;40.00
1725379115.628;1;40.00
1725379115.678;1;40.00
1725379115.728;1;40.00
1725379115.777;1;40.00
1725379115.829;1;40.00
1725379115.878;1;40.00
1725379115.929;1;40.00
1725379115.979;1;40.00
1725379116.028;1;40.00
1725379116.079;1;40.00
1725379116.129;1;40.00
1725379116.179;1;40.00
1725379116.230;1;40.00
1725379116.279;1;40.00
1725379338.086;242;30.00;36772.93
1725379338.136;182;30.00;40317.87
1725379338.186;182;30.00;40317.87
1725379338.236;182;30.00;40317.87
1725379338.286;182;30.00;40317.87
1725379338.386;187;30.00;40024.27
1725379338.436;265;30.00;35435.46
1725379338.486;265;30.00;35435.46
1725379338.537;265;30.00;35435.46
1725379338.586;129;30.00;43420.00
1725379338.636;235;30.00;37170.13
1725379338.687;127;30.00;43529.73
1725379338.736;127;30.00;43529.73
1725379338.787;127;30.00;43529.73
1725379338.836;250;30.00;36290.93
1725379338.886;257;30.00;35896.67
1725379338.936;249;30.00;36346.00
1725379338.986;122;30.00;43838.40
1725379339.036;122;30.00;43838.40
1725379339.086;122;30.00;43838.40
1725379339.136;129;30.00;43415.13
1725379339.186;144;30.00;42536.67
1725379339.236;214;30.00;38424.80
1725379339.286;214;30.00;38424.80
1725379339.336;214;30.00;38424.80
1725379339.386;214;30.00;38424.80
1725379339.536;124;30.00;43714.27
1725379339.586;124;30.00;43714.27
1725379339.636;124;30.00;43714.27
1725379339.687;126;30.00;43560.80
1725379339.787;141;30.00;42715.93
1725379339.836;141;30.00;42715.93
1725379339.886;141;30.00;42715.93
1725379339.936;140;30.00;42743.67
1725379340.036;125;30.00;43618.67
1725379340.086;135;30.00;43026.54
1725379340.136;135;30.00;43026.54
1725379340.186;135;30.00;43026.54
1725379340.237;200;30.00;39236.07
1725379340.287;135;30.00;43072.80
1725379340.337;135;30.00;43044.07
1725379340.387;135;30.00;43044.07
1725379340.437;135;30.00;43044.07
1725379340.487;134;30.00;43122.13
1725379340.588;157;30.00;41747.87
1725379340.637;157;30.00;41747.87
1725379340.687;157;30.00;41747.87
1725379340.737;157;30.00;41747.87
1725379340.787;158;30.00;41726.93
1725379340.837;246;30.00;36551.60
1725379340.887;135;30.00;43045.87
1725379340.938;135;30.00;43045.87
1725379340.988;135;30.00;43045.87
1725379341.038;126;30.00;43590.33
1725379341.087;118;30.00;44075.20
1725379341.137;134;30.00;43127.60
1725379341.187;175;30.00;40699.73
1725379341.238;175;30.00;40699.73
1725379341.288;175;30.00;40699.73
1725379341.338;163;30.00;41406.13
1725379341.387;123;30.00;43731.20
1725379341.438;133;30.00;43153.33
1725379341.488;133;30.00;43153.33
1725379341.538;133;30.00;43153.33
1725379341.588;120;30.00;43940.80
1725379341.638;124;30.00;43671.46
1725379341.688;174;30.00;40772.00
1725379341.738;174;30.00;40772.00
1725379341.789;174;30.00;40772.00
1725379341.839;174;30.00;40772.00
1725379341.889;131;30.00;43312.27
1725379341.990;164;30.00;41332.67
1725379342.040;164;30.00;41332.67
1725379342.091;164;30.00;41332.67
1725379342.141;142;30.00;42641.60
1725379342.192;245;30.00;36614.13
1725379342.241;245;30.00;36614.13
1725379342.292;139;30.00;42813.87
1725379342.342;139;30.00;42813.87
1725379342.393;139;30.00;42813.87
1725379342.442;135;30.00;43061.20
1725379342.493;158;30.00;41712.27
1725379342.543;132;30.00;43223.67
1725379342.594;111;30.00;44459.93
1725379342.643;111;30.00;44459.93
1725379342.695;111;30.00;44459.93
1725379342.744;188;30.00;39938.27
1725379342.794;165;30.00;41298.67
1725379342.844;123;30.00;43782.67
1725379342.895;156;30.00;41800.80
1725379342.944;156;30.00;41800.80
1725379342.995;156;30.00;41800.80
1725379343.045;136;30.00;43013.54
1725379343.144;131;30.00;43269.87
1725379343.195;188;30.00;39969.87
1725379343.246;188;30.00;39969.87
1725379343.296;188;30.00;39969.87
1725379343.404;162;30.00;41448.40
1725379343.451;246;30.00;36574.67
1725379343.500;246;30.00;36574.67
1725379343.551;246;30.00;36574.67
1725379343.601;246;30.00;36574.67
1725379343.701;191;30.00;39760.27
1725379343.751;219;30.00;38142.00
1725379343.801;161;30.00;41517.46
1725379343.852;161;30.00;41517.46
1725379343.901;161;30.00;41517.46
1725379343.952;115;30.00;44200.67
1725379344.053;178;30.00;40512.93
1725379344.103;121;30.00;43850.40
1725379344.152;121;30.00;43850.40
1725379344.203;121;30.00;43850.40
1725379344.253;135;30.00;43057.80
1725379344.302;145;30.00;42444.13
1725379344.352;119;30.00;44005.27
1725379344.403;126;30.00;43600.73
1725379344.453;126;30.00;43600.73
1725379344.502;126;30.00;43600.73
1725379344.552;250;30.00;36295.46
1725379344.602;140;30.00;42736.27
1725379344.653;132;30.00;43234.60
1725379344.704;132;30.00;43234.60
1725379344.754;132;30.00;43234.60
1725379344.803;132;30.00;43234.60
1725379344.854;138;30.00;42876.54
1725379344.905;144;30.00;42553.33
1725379344.955;142;30.00;42625.20
1725379345.004;142;30.00;42625.20
1725379345.054;142;30.00;42625.20
1725379345.104;179;30.00;40492.80
1725379345.155;134;30.00;43098.40
1725379345.455;117;30.00;44093.93
1725379345.505;237;30.00;37056.00
1725379345.555;226;30.00;37707.33
1725379345.605;254;30.00;36056.00
1725379345.655;254;30.00;36056.00
1725379345.705;254;30.00;36056.00
1725379345.755;124;30.00;43688.40
1725379345.809;137;30.00;42918.13
1725379345.856;136;30.00;43021.33
1725379361.919;259;30.00;35758.40
1725379361.970;262;30.00;35584.80
1725379362.020;250;30.00;36312.67
1725379362.070;250;30.00;36312.67
1725379362.120;250;30.00;36312.67
1725379362.220;241;30.00;36838.67
1725379362.270;173;30.00;40821.07
1725379362.320;173;30.00;40821.07
1725379362.369;173;30.00;40821.07
1725379362.470;190;30.00;39806.20
1725379362.675;127;30.00;43542.27
1725379362.721;135;30.00;43063.73
1725379362.822;260;30.00;35718.40
1725379362.872;260;30.00;35718.40
1725379362.922;260;30.00;35718.40
1725379362.972;239;30.00;36984.27
1725379363.022;254;30.00;36083.20
1725379363.122;141;30.00;42720.67
1725379363.172;141;30.00;42720.67
1725379363.222;141;30.00;42720.67
1725379363.272;135;30.00;43080.13
1725379363.372;211;30.00;38599.87
1725379363.423;146;30.00;42414.40
1725379363.473;146;30.00;42414.40
1725379363.522;146;30.00;42414.40
1725379363.572;128;30.00;43477.87
1725379363.874;137;30.00;42932.33
1725379363.974;237;30.00;37100.00
1725379364.024;258;30.00;35822.40
1725379364.074;258;30.00;35822.40
1725379364.124;258;30.00;35822.40
1725379364.174;248;30.00;36419.73
1725379364.224;241;30.00;36866.87
1725379364.274;141;30.00;42677.33
1725379364.324;137;30.00;42931.73
1725379364.374;137;30.00;42931.73
1725379364.424;137;30.00;42931.73
1725379364.474;134;30.00;43129.20
1725379364.524;146;30.00;42412.80
1725379364.574;94;30.00;45431.73
1725379364.624;94;30.00;45431.73
1725379364.674;94;30.00;45431.73
1725379364.724;159;30.00;41669.87
1725379364.774;155;30.00;41908.27
1725379364.824;132;30.00;43229.07
1725379364.874;258;30.00;35821.33
1725379364.926;258;30.00;35821.33
1725379364.976;258;30.00;35821.33
1725379365.026;258;30.00;35821.33
1725379365.076;145;30.00;42457.60
1725379365.176;118;30.00;44023.46
1725379365.226;118;30.00;44023.46
1725379365.276;118;30.00;44023.46
1725379365.326;118;30.00;44023.46
1725379365.377;197;30.00;39423.73
1725379365.427;130;30.00;43348.27
1725379365.727;235;30.00;37191.46
1725379365.827;259;30.00;35765.67
1725379365.877;259;30.00;35765.67
1725379365.927;259;30.00;35765.67
1725379365.977;259;30.00;35765.67
1725379366.027;138;30.00;42866.40
1725379366.077;220;30.00;38060.80
1725379366.126;143;30.00;42591.73
1725379366.176;159;30.00;41630.67
1725379366.227;159;30.00;41630.67
1725379366.278;159;30.00;41630.67
1725379366.327;159;30.00;41630.67
1725379366.427;150;30.00;42197.20
1725379366.478;265;30.00;35441.33
1725379366.528;140;30.00;42759.60
1725379366.578;140;30.00;42759.60
1725379366.628;140;30.00;42759.60
1725379366.678;140;30.00;42759.60
1725379366.779;121;30.00;43902.93
1725379366.830;113;30.00;44369.07
1725379366.880;128;30.00;43438.13
1725379366.929;128;30.00;43438.13
1725379366.979;128;30.00;43438.13
1725379367.029;128;30.00;43438.13
1725379367.129;140;30.00;42768.93
1725379367.179;127;30.00;43512.13
1725379367.229;125;30.00;43636.00
1725379367.280;125;30.00;43636.00
1725379367.331;125;30.00;43636.00
1725379367.380;128;30.00;43480.00
1725379367.481;196;30.00;39508.27
1725379367.531;130;30.00;43372.40
1725379367.582;130;30.00;43372.40
1725379367.632;130;30.00;43372.40
1725379367.682;127;30.00;43512.54
1725379367.782;253;30.00;36145.73
1725379367.833;150;30.00;42161.07
1725379367.883;150;30.00;42161.07
1725379367.933;150;30.00;42161.07
1725379367.983;126;30.00;43556.54
1725379368.032;245;30.00;36620.40
1725379368.084;247;30.00;36502.54
1725379368.134;247;30.00;36502.54
1725379368.185;247;30.00;36502.54
1725379368.235;266;30.00;35397.20
1725379368.285;165;30.00;41297.46
1725379368.385;245;30.00;36615.20
1725379368.436;245;30.00;36615.20
1725379368.486;245;30.00;36615.20
1725379368.536;222;30.00;37960.67
1725379368.586;233;30.00;37294.87
1725379368.636;148;30.00;42265.33
1725379368.686;151;30.00;42132.40
1725379368.736;151;30.00;42132.40
1725379368.786;151;30.00;42132.40
1725379368.836;151;30.00;42132.40
1725379368.886;133;30.00;43159.93
1725379368.936;180;30.00;40412.54
1725379368.986;168;30.00;41146.27
1725379369.036;246;30.00;36550.13
1725379369.086;246;30.00;36550.13
1725379369.136;246;30.00;36550.13
1725379369.186;200;30.00;39261.87
1725379369.236;139;30.00;42825.07
1725379369.287;138;30.00;42896.54
1725379369.536;158;30.00;41677.33
1725379387.866;263;30.00;35568.93
1725379387.916;245;30.00;36620.40
1725379388.017;259;30.00;35758.40
1725379388.466;255;30.00;36012.13
1725379388.517;246;30.00;36572.27
1725379389.016;245;30.00;36583.73
1725379389.116;242;30.00;36796.20
1725379389.167;242;30.00;36796.20
1725379389.217;242;30.00;36796.20
1725379389.267;242;30.00;36796.20
1725379389.367;166;30.00;41240.54
1725379389.416;145;30.00;42467.60
1725379389.466;145;30.00;42467.60
1725379389.516;145;30.00;42467.60
1725379389.567;145;30.00;42467.60
1725379389.667;130;30.00;43359.27
1725379389.766;266;30.00;35347.27
1725379389.817;266;30.00;35347.27
1725379389.866;266;30.00;35347.27
1725379390.017;117;30.00;44120.07
1725379390.067;128;30.00;43454.40
1725379390.116;128;30.00;43454.40
1725379390.166;128;30.00;43454.40
1725379390.316;180;30.00;40431.46
1725379390.367;180;30.00;40431.46
1725379390.417;180;30.00;40431.46
1725379390.466;180;30.00;40431.46
1725379390.566;128;30.00;43468.93
1725379391.017;255;30.00;36037.60
1725379391.368;235;30.00;37195.73
1725379391.418;235;30.00;37195.73
1725379391.468;235;30.00;37195.73
1725379391.568;140;30.00;42754.40
1725379391.618;212;30.00;38519.46
1725379391.668;212;30.00;38519.46
1725379391.718;212;30.00;38519.46
1725379391.767;199;30.00;39277.60
1725379391.867;138;30.00;42856.73
1725379391.918;138;30.00;42856.73
1725379391.968;138;30.00;42856.73
1725379392.018;138;30.00;42856.73
1725379392.068;132;30.00;43234.93
1725379392.168;144;30.00;42536.67
1725379392.218;144;30.00;42536.67
1725379392.268;144;30.00;42536.67
1725379392.318;144;30.00;42536.67
1725379392.369;189;30.00;39867.20
1725379392.418;141;30.00;42726.80
1725379392.469;129;30.00;43395.20
1725379392.518;129;30.00;43395.20
1725379392.569;143;30.00;42569.46
1725379392.619;143;30.00;42569.46
1725379392.668;143;30.00;42569.46
1725379392.720;185;30.00;40141.46
1725379392.770;166;30.00;41248.00
1725379392.819;234;30.00;37240.93
1725379392.870;204;30.00;39029.73
1725379392.920;204;30.00;39029.73
1725379392.970;204;30.00;39029.73
1725379393.020;204;30.00;39029.73
1725379393.069;137;30.00;42932.27
1725379393.120;194;30.00;39595.33
1725379393.170;118;30.00;44032.27
1725379393.219;144;30.00;42543.07
1725379393.270;144;30.00;42543.07
1725379393.320;144;30.00;42543.07
1725379393.370;137;30.00;42916.00
1725379393.419;93;30.00;45493.60
1725379393.521;163;30.00;41386.27
1725379393.570;163;30.00;41386.27
1725379393.620;163;30.00;41386.27
1725379393.670;163;30.00;41386.27
1725379393.721;248;30.00;36415.20
1725379393.826;147;30.00;42330.54
1725379393.876;133;30.00;43197.60
1725379393.926;133;30.00;43197.60
1725379393.976;133;30.00;43197.60
1725379394.026;160;30.00;41576.80
1725379394.076;219;30.00;38114.67
1725379394.127;140;30.00;42779.40
1725379394.176;140;30.00;42779.40
1725379394.226;140;30.00;42779.40
1725379394.276;140;30.00;42779.40
1725379394.326;163;30.00;41394.27
1725379394.376;132;30.00;43228.27
1725379394.426;128;30.00;43468.67
1725379394.476;128;30.00;43468.67
1725379394.526;128;30.00;43468.67
1725379394.577;128;30.00;43468.67
1725379394.626;165;30.00;41308.27
1725379394.676;136;30.00;42977.73
1725379395.027;267;30.00;35338.54
1725379913.522;350;26.14;35294.80
1725379915.174;350;26.34;35598.13
1725379939.284;350;28.23;38517.33
1725379939.334;350;28.23;38517.33
1725379939.384;350;28.23;38517.33
1725379939.434;350;26.28;35514.67
1725379939.533;350;29.55;40551.46
1725379939.584;350;29.55;40551.46
1725379939.633;350;29.55;40551.46
1725379939.685;350;28.83;39434.80
1725379939.735;350;31.04;42837.87
1725379939.785;350;31.44;43460.20
1725379939.834;350;26.91;36480.00
1725379939.886;350;26.91;36480.00
1725379939.936;350;26.91;36480.00
1725379939.987;350;26.94;36522.67
1725379940.038;350;31.28;43210.67
1725379940.088;350;27.86;37950.67
1725379940.138;350;31.06;42879.60
1725379940.188;350;31.06;42879.60
1725379940.239;350;31.06;42879.60
1725379940.288;350;32.04;44384.67
1725379940.390;350;29.82;40970.00
1725379940.439;350;31.25;43173.73
1725379940.489;350;31.25;43173.73
1725379940.539;350;31.25;43173.73
1725379940.589;350;31.25;43173.73
1725379940.689;350;26.33;35592.93
1725379940.940;350;26.49;35836.54
1725379940.990;350;26.10;35238.13
1725379941.040;350;27.17;36873.87
1725379941.090;350;27.17;36873.87
1725379941.140;350;27.17;36873.87
1725379941.190;350;27.70;37695.67
1725379941.240;350;30.75;42403.87
1725379941.290;350;29.29;40150.93
1725379941.340;350;32.31;44800.93
1725379941.391;350;32.31;44800.93
1725379941.440;350;32.31;44800.93
1725379941.491;350;32.31;44800.93
1725379941.542;350;27.05;36703.87
1725379941.592;350;28.09;38295.27
1725379941.642;350;31.29;43235.87
1725379941.692;350;31.29;43235.87
1725379941.742;350;31.29;43235.87
1725379941.791;350;31.29;43235.87
1725379941.842;350;32.51;45110.13
1725379941.892;350;31.53;43593.80
1725379941.943;350;26.67;36115.73
1725379941.993;350;26.67;36115.73
1725379942.043;350;26.67;36115.73
1725379942.093;350;27.96;38102.13
1725379942.144;350;31.16;43028.80
1725379942.194;350;28.60;39080.27
1725379942.245;350;31.18;43054.54
1725379942.295;350;31.18;43054.54
1725379942.344;350;31.18;43054.54
1725379942.395;350;31.18;43054.54
1725379942.444;350;31.43;43452.27
1725379942.495;350;27.26;37014.93
1725379942.544;350;31.65;43788.00
1725379942.595;350;31.65;43788.00
1725379942.646;350;31.65;43788.00
1725379942.696;350;31.65;43788.00
1725379942.746;350;31.25;43167.73
1725379942.796;350;26.47;35809.27
1725379942.845;350;31.36;43334.60
1725379942.896;350;31.36;43334.60
1725379942.946;350;31.36;43334.60
1725379942.995;350;31.36;43334.60
1725379943.046;350;29.87;41036.93
1725379943.096;350;31.59;43695.20
1725379943.146;350;31.20;43097.67
1725379943.196;350;26.67;36108.00
1725379943.496;350;31.11;42951.07
1725379943.546;350;29.13;39896.60
1725379943.596;350;28.64;39144.40
1725379943.646;350;28.64;39144.40
1725379943.697;350;28.64;39144.40
1725379943.796;350;31.15;43011.87
1725379943.847;350;31.49;43531.46
1725379943.896;350;31.49;43531.46
1725379943.946;350;31.49;43531.46
1725379943.997;350;26.97;36571.60
1725379944.046;350;31.24;43150.40
1725379944.096;350;32.54;45157.60
1725379944.146;350;32.54;45157.60
1725379944.196;350;32.54;45157.60
1725379944.246;350;32.54;45157.60
1725379944.296;350;28.17;38424.80
1725379944.347;350;28.64;39152.27
1725379944.397;350;31.41;43414.67
1725379944.446;350;31.41;43414.67
1725379944.496;350;31.41;43414.67
1725379944.546;350;31.41;43414.67
1725379944.596;350;30.81;42491.07
1725379944.697;350;29.82;40958.27
1725379944.746;350;29.82;40958.27
1725379944.797;350;29.82;40958.27
1725379944.847;350;31.47;43506.67
1725379944.947;350;32.58;45211.46
1725379944.997;350;32.58;45211.46
1725379945.048;350;32.58;45211.46
1725379945.098;350;31.61;43722.93
1725379945.148;350;28.99;39680.93
1725379945.197;350;29.60;40624.67
1725379945.247;350;29.60;40624.67
1725379945.297;350;29.60;40624.67
1725379945.347;350;26.25;35469.07
1725379945.398;350;30.18;41518.80
1725379945.448;350;31.17;43038.07
1725379945.498;350;31.38;43367.93
1725379945.547;350;31.38;43367.93
1725379945.598;350;31.38;43367.93
1725379945.648;350;31.20;43092.27
1725379960.316;350;26.28;35516.80
1725379960.516;350;26.89;36450.80
1725379960.566;350;29.08;39825.87
1725379960.616;350;26.96;36564.00
1725379960.816;350;30.93;42672.93
1725379960.868;350;30.91;42638.80
1725379960.917;350;26.76;36253.46
1725379960.966;350;26.60;36000.80
1725379961.017;350;26.60;36000.80
1725379961.066;350;26.60;36000.80
1725379961.117;350;26.60;36000.80
1725379961.175;350;27.63;37584.13
1725379961.217;350;31.86;44106.54
1725379961.266;350;32.81;45571.67
1725379961.316;350;31.80;44008.54
1725379961.366;350;31.80;44008.54
1725379961.416;350;31.80;44008.54
1725379961.467;350;32.33;44828.00
1725379961.517;350;30.75;42394.27
1725379961.567;350;31.16;43032.00
1725379961.617;350;27.12;36800.67
1725379961.666;350;28.50;38925.13
1725379961.717;350;28.50;38925.13
1725379961.768;350;28.50;38925.13
1725379961.818;350;29.56;40567.20
1725379961.868;350;33.85;47169.60
1725379961.917;350;28.25;38545.46
1725379961.969;350;33.19;46156.93
1725379962.018;350;33.19;46156.93
1725379962.067;350;33.19;46156.93
1725379962.118;350;34.04;47466.00
1725379962.167;350;30.71;42330.13
1725379962.218;350;33.33;46375.20
1725379962.268;350;31.41;43417.33
1725379962.317;350;31.41;43417.33
1725379962.368;350;31.41;43417.33
1725379962.417;350;31.41;43417.33
1725379962.467;350;33.21;46182.67
1725379962.518;350;29.84;40996.07
1725379962.568;350;27.81;37866.93
1725379962.618;350;27.81;37866.93
1725379962.667;350;27.81;37866.93
1725379962.718;350;31.97;44275.46
1725379962.769;350;27.62;37567.20
1725379962.818;350;26.68;36128.54
1725379962.868;350;26.68;36128.54
1725379962.918;350;26.68;36128.54
1725379962.970;350;32.86;45645.07
1725379963.025;350;32.79;45534.93
1725379963.072;350;29.34;40227.20
1725379963.121;350;29.34;40227.20
1725379963.172;350;29.34;40227.20
1725379963.223;350;29.34;40227.20
1725379963.272;350;32.09;44454.93
1725379963.323;350;32.28;44752.67
1725379963.374;350;31.21;43106.13
1725379963.423;350;31.21;43106.13
1725379963.475;350;31.21;43106.13
1725379963.524;350;31.21;43106.13
1725379963.576;350;30.90;42622.00
1725379963.625;350;28.38;38748.13
1725379963.676;350;32.61;45260.27
1725379963.726;350;32.61;45260.27
1725379963.776;350;32.61;45260.27
1725379963.826;350;33.55;46714.40
1725379963.876;350;30.69;42302.13
1725379963.926;350;31.49;43539.33
1725379963.977;350;32.83;45595.73
1725379964.027;350;32.83;45595.73
1725379964.077;350;32.83;45595.73
1725379964.127;350;32.83;45595.73
1725379964.177;350;31.55;43626.80
1725379964.228;350;31.96;44259.87
1725379964.278;350;28.86;39480.27
1725379964.328;350;29.70;40776.46
1725379964.378;350;29.70;40776.46
1725379964.428;350;29.70;40776.46
1725379964.478;350;33.37;46426.27
1725379964.529;350;32.37;44885.87
1725379964.578;350;32.82;45593.07
1725379964.779;350;32.46;45024.13
1725379964.830;350;31.27;43196.67
1725379964.879;350;32.09;44467.40
1725379964.930;350;26.60;35997.60
1725379964.980;350;26.60;35997.60
1725379965.030;350;26.60;35997.60
1725379965.080;350;27.96;38105.87
1725379965.130;350;26.24;35444.13
1725379965.180;350;31.84;44073.87
1725379965.229;350;30.49;41989.07
1725379965.279;350;30.49;41989.07
1725379965.330;350;30.49;41989.07
1725379965.380;350;30.49;41989.07
1725379965.430;350;28.42;38805.80
1725379965.479;350;30.77;42426.67
1725379965.530;350;30.98;42746.67
1725379965.580;350;28.79;39383.60
1725379965.630;350;28.79;39383.60
1725379965.680;350;28.79;39383.60
1725379965.730;350;28.79;39383.60
1725379965.780;350;30.26;41648.80
1725379965.830;350;32.78;45520.80
1725379965.881;350;33.07;45968.13
1725379965.932;350;33.07;45968.13
1725379965.981;350;33.07;45968.13
1725379966.031;350;31.13;42988.00
1725379966.082;350;28.07;38268.73
1725379966.131;350;28.14;38369.87
1725379966.181;350;31.24;43150.67
1725379966.231;350;31.24;43150.67
1725379966.282;350;31.24;43150.67
1725379966.331;350;33.38;46449.87
1725379966.381;350;31.54;43617.60
1725379966.431;350;31.54;43617.60
1725379966.481;350;31.68;43823.60
1725379966.532;350;31.68;43823.60
1725379966.582;350;31.68;43823.60
1725379966.632;350;32.28;44756.20
1725379966.732;350;28.99;39679.87
1725379966.783;350;32.12;44512.54
1725379966.833;350;32.12;44512.54
1725379966.883;350;32.12;44512.54
1725379966.933;350;32.12;44512.54
1725379966.983;350;30.55;42090.54
1725379967.034;350;30.44;41919.20
1725379967.083;350;32.56;45182.13
1725379967.134;350;32.56;45182.13
1725379967.184;350;32.56;45182.13
1725379967.234;350;32.56;45182.13
1725379967.284;350;29.59;40606.93
1725379967.334;350;32.29;44766.67
1725379967.385;350;31.00;42785.33
1725379967.435;350;31.00;42785.33
1725379967.484;350;31.00;42785.33
1725379967.535;350;31.00;42785.33
1725379967.585;350;32.04;44388.00
1725379967.635;350;32.04;44388.00
1725379967.685;350;31.14;43001.87
1725379967.735;350;31.14;43001.87
1725379967.786;350;31.14;43001.87
1725379967.836;350;31.44;43459.60
1725379967.886;350;32.54;45158.40
1725379967.936;350;32.09;44458.13
1725379967.987;350;30.50;42013.73
1725379968.037;350;30.50;42013.73
1725379968.086;350;30.50;42013.73
1725379968.136;350;28.74;39305.46
1725379968.186;350;31.76;43960.33
1725379968.236;350;32.98;45837.60
1725380280.050;241;10.00;36848.00
1725380280.100;241;10.00;36848.00
1725380280.152;241;10.00;36848.00
1725380280.202;241;10.00;36848.00
1725380280.251;253;10.00;36148.13
1725380280.311;252;10.00;36206.80
1725380280.352;252;10.00;36206.80
1725380280.552;140;10.00;42753.33
1725380280.602;149;10.00;42228.00
1725380280.702;253;10.00;36144.80
1725380280.753;253;10.00;36144.80
1725380280.802;253;10.00;36144.80
1725380280.852;231;10.00;37444.13
1725380280.953;131;10.00;43297.46
1725380281.003;131;10.00;43297.46
1725380281.053;131;10.00;43297.46
1725380281.103;131;10.00;43297.46
1725380281.153;140;10.00;42787.13
1725380281.253;231;10.00;37423.73
1725380281.303;239;10.00;36970.67
1725380281.353;239;10.00;36970.67
1725380281.404;239;10.00;36970.67
1725380281.453;254;10.00;36053.20
1725380281.554;198;10.00;39390.80
1725380281.604;207;10.00;38860.27
1725380281.655;207;10.00;38860.27
1725380281.704;207;10.00;38860.27
1725380281.756;207;10.00;38860.27
1725380281.806;207;10.00;38860.27
1725380281.856;139;10.00;42838.00
1725380281.906;261;10.00;35644.13
1725380281.956;235;10.00;37203.07
1725380282.006;257;10.00;35914.67
1725380282.056;257;10.00;35914.67
1725380282.107;257;10.00;35914.67
1725380282.156;257;10.00;35914.67
1725380282.206;242;10.00;36793.07
1725380282.256;244;10.00;36652.67
1725380282.306;143;10.00;42559.20
1725380282.356;147;10.00;42365.80
1725380282.406;69;10.00;46921.80
1725380282.456;69;10.00;46921.80
1725380282.506;69;10.00;46921.80
1725380282.556;155;10.00;41854.40
1725380282.607;237;10.00;37098.20
1725380282.657;140;10.00;42765.46
1725380282.707;179;10.00;40452.00
1725380282.758;179;10.00;40452.00
1725380282.808;179;10.00;40452.00
1725380282.858;206;10.00;38919.20
1725380282.908;168;10.00;41135.46
1725380282.959;173;10.00;40828.27
1725380283.009;158;10.00;41697.46
1725380283.059;158;10.00;41697.46
1725380283.109;158;10.00;41697.46
1725380283.159;186;10.00;40060.00
1725380283.209;158;10.00;41700.80
1725380283.259;169;10.00;41035.87
1725380283.309;264;10.00;35514.67
1725380283.360;264;10.00;35514.67
1725380283.410;264;10.00;35514.67
1725380283.459;153;10.00;42004.13
1725380283.510;170;10.00;40979.73
1725380283.560;230;10.00;37490.13
1725380283.609;262;10.00;35620.80
1725380283.660;262;10.00;35620.80
1725380283.711;262;10.00;35620.80
1725380283.761;134;10.00;43113.40
1725380283.811;157;10.00;41786.13
1725380283.860;117;10.00;44120.00
1725380283.910;117;10.00;44120.00
1725380283.961;117;10.00;44120.00
1725380284.010;117;10.00;44120.00
1725380284.061;197;10.00;39443.60
1725380284.110;187;10.00;40023.73
1725380284.161;130;10.00;43330.13
1725380284.211;130;10.00;43330.13
1725380284.261;130;10.00;43330.13
1725380284.311;130;10.00;43330.13
1725380284.361;137;10.00;42955.33
1725380284.410;141;10.00;42703.73
1725380284.471;125;10.00;43644.40
1725380284.515;109;10.00;44561.33
1725380284.566;109;10.00;44561.33
1725380284.616;109;10.00;44561.33
1725380284.666;109;10.00;44561.33
1725380284.716;140;10.00;42763.46
1725380284.766;221;10.00;38041.93
1725380284.815;154;10.00;41966.33
1725380284.866;236;10.00;37148.67
1725380284.915;236;10.00;37148.67
1725380284.966;236;10.00;37148.67
1725380285.016;236;10.00;37148.67
1725380285.066;88;10.00;45792.54
1725380285.116;220;10.00;38095.33
1725380285.166;252;10.00;36203.33
1725380285.216;246;10.00;36534.93
1725380285.266;246;10.00;36534.93
1725380285.316;246;10.00;36534.93
1725380285.366;246;10.00;36534.93
1725380285.416;209;10.00;38718.00
1725380285.466;146;10.00;42401.60
1725380285.516;206;10.00;38919.73
1725380285.566;184;10.00;40173.20
1725380285.616;184;10.00;40173.20
1725380285.667;184;10.00;40173.20
1725380285.718;184;10.00;40173.20
1725380285.768;196;10.00;39480.67
1725380285.818;182;10.00;40306.27
1725380285.868;128;10.00;43482.54
1725380285.918;139;10.00;42832.80
1725380285.969;139;10.00;42832.80
1725380286.020;139;10.00;42832.80
1725380286.070;177;10.00;40583.73
1725380286.120;78;10.00;46366.93
1725380286.169;120;10.00;43938.54
1725380286.219;145;10.00;42453.87
1725380286.269;145;10.00;42453.87
1725380286.320;145;10.00;42453.87
1725380286.369;145;10.00;42453.87
1725380286.419;167;10.00;41178.40
1725380286.470;179;10.00;40447.73
1725380286.519;181;10.00;40332.87
1725380286.570;181;10.00;40332.87
1725380286.619;181;10.00;40332.87
1725380286.670;181;10.00;40332.87
1725380286.719;163;10.00;41408.60
1725380286.770;252;10.00;36200.73
1725380286.821;176;10.00;40675.20
1725380286.871;120;10.00;43951.60
1725380286.921;120;10.00;43951.60
1725380286.971;120;10.00;43951.60
1725380287.022;120;10.00;43951.60
1725380287.071;184;10.00;40177.87
1725380287.121;250;10.00;36298.13
1725380287.171;197;10.00;39402.13
1725380287.221;188;10.00;39945.60
1725380287.271;188;10.00;39945.60
1725380287.322;188;10.00;39945.60
1725380287.372;188;10.00;39956.27
1725380287.422;102;10.00;44974.54
1725380287.473;105;10.00;44803.46
1725380287.523;145;10.00;42494.67
1725380287.573;145;10.00;42494.67
1725380287.622;145;10.00;42494.67
1725380287.674;145;10.00;42494.67
1725380287.724;208;10.00;38751.33
1725380287.773;150;10.00;42167.20
1725380287.824;118;10.00;44029.33
1725380287.873;230;10.00;37496.27
1725380287.924;240;10.00;36878.40
1725380287.974;240;10.00;36878.40
1725380288.024;240;10.00;36878.40
1725380288.073;198;10.00;39345.40
1725380288.124;195;10.00;39561.07
1725380288.174;151;10.00;42088.54
1725380288.224;134;10.00;43108.80
1725380306.544;245;10.00;36596.67
1725380306.846;154;10.00;41929.33
1725380306.896;259;10.00;35787.46
1725380306.946;259;10.00;35787.46
1725380306.996;259;10.00;35787.46
1725380307.046;259;10.00;35787.46
1725380307.147;147;10.00;42344.80
1725380307.197;255;10.00;36043.33
1725380307.246;255;10.00;36043.33
1725380307.296;255;10.00;36043.33
1725380307.347;255;10.00;36043.33
1725380307.446;142;10.00;42648.27
1725380307.497;207;10.00;38806.40
1725380307.546;207;10.00;38806.40
1725380307.596;207;10.00;38806.40
1725380307.647;207;10.00;38806.40
1725380307.746;190;10.00;39804.67
1725380307.796;163;10.00;41394.73
1725380307.847;163;10.00;41394.73
1725380307.897;163;10.00;41394.73
1725380307.947;163;10.00;41394.73
1725380307.997;218;10.00;38184.54
1725380308.046;174;10.00;40746.67
1725380308.096;168;10.00;41103.07
1725380308.147;168;10.00;41103.07
1725380308.197;168;10.00;41103.07
1725380308.247;168;10.00;41103.07
1725380308.296;171;10.00;40970.80
1725380308.347;157;10.00;41752.13
1725380308.397;134;10.00;43136.27
1725380308.447;134;10.00;43136.27
1725380308.497;134;10.00;43136.27
1725380308.547;134;10.00;43136.27
1725380308.597;261;10.00;35666.40
1725380308.647;217;10.00;38232.00
1725380308.697;167;10.00;41173.60
1725380308.747;167;10.00;41173.60
1725380308.797;167;10.00;41173.60
1725380308.847;167;10.00;41173.60
1725380308.897;117;10.00;44107.20
1725380308.947;142;10.00;42630.40
1725380308.997;203;10.00;39095.54
1725380309.047;203;10.00;39095.54
1725380309.097;203;10.00;39095.54
1725380309.147;203;10.00;39095.54
1725380309.197;156;10.00;41832.54
1725380309.248;240;10.00;36918.93
1725380309.297;103;10.00;44907.73
1725380309.347;109;10.00;44552.00
1725380309.397;109;10.00;44552.00
1725380309.447;109;10.00;44552.00
1725380309.497;123;10.00;43767.73
1725380309.548;169;10.00;41063.60
1725380309.648;194;10.00;39567.54
1725380309.697;194;10.00;39567.54
1725380309.747;194;10.00;39567.54
1725380309.797;194;10.00;39567.54
1725380309.847;182;10.00;40309.07
1725380309.898;153;10.00;41993.00
1725380309.947;163;10.00;41420.60
1725380309.998;147;10.00;42328.54
1725380310.048;200;10.00;39216.00
1725380310.098;200;10.00;39216.00
1725380310.148;200;10.00;39216.00
1725380310.197;264;10.00;35498.67
1725380310.248;202;10.00;39152.80
1725380310.297;144;10.00;42536.27
1725380310.348;158;10.00;41679.46
1725380310.398;158;10.00;41679.46
1725380310.448;158;10.00;41679.46
1725380310.499;158;10.00;41679.46
1725380310.548;157;10.00;41778.54
1725380310.600;133;10.00;43149.60
1725380310.650;143;10.00;42596.67
1725380310.699;167;10.00;41151.54
1725380310.750;167;10.00;41151.54
1725380310.799;167;10.00;41151.54
1725380310.850;167;10.00;41151.54
1725380310.899;154;10.00;41964.54
1725380310.950;145;10.00;42470.93
1725380310.999;175;10.00;40693.07
1725380311.049;182;10.00;40276.13
1725380311.100;182;10.00;40276.13
1725380311.150;182;10.00;40276.13
1725380311.199;182;10.00;40276.13
1725380311.249;234;10.00;37266.80
1725380311.300;162;10.00;41497.20
1725380311.350;156;10.00;41811.46
1725380311.400;120;10.00;43925.07
1725380311.450;157;10.00;41750.67
1725380311.500;157;10.00;41750.67
1725380311.551;157;10.00;41750.67
1725380311.601;134;10.00;43131.73
1725380311.651;210;10.00;38670.07
1725380311.702;153;10.00;42024.20
1725380311.753;138;10.00;42897.00
1725380311.802;138;10.00;42897.00
1725380311.852;138;10.00;42897.00
1725380311.902;138;10.00;42869.60
1725380311.952;190;10.00;39823.73
1725380312.002;220;10.00;38065.07
1725380312.053;220;10.00;38065.07
1725380312.102;220;10.00;38065.07
1725380312.154;220;10.00;38065.07
1725380312.203;133;10.00;43185.20
1725380312.253;124;10.00;43706.54
1725380312.303;171;10.00;40963.60
1725380312.354;171;10.00;40963.60
1725380312.404;171;10.00;40963.60
1725380312.454;171;10.00;40963.60
1725380312.504;129;10.00;43389.87
1725380312.554;164;10.00;41382.54
1725380312.604;126;10.00;43591.07
1725380312.654;131;10.00;43290.54
1725380312.705;131;10.00;43290.54
1725380312.754;131;10.00;43290.54
1725380312.806;136;10.00;42967.60
1725380312.856;144;10.00;42541.60
1725380312.906;175;10.00;40734.87
1725380312.957;175;10.00;40734.87
1725380313.007;175;10.00;40734.87
1725380313.057;212;10.00;38524.00
1725380313.107;177;10.00;40572.00
1725380313.157;130;10.00;43367.46
1725380313.207;118;10.00;44054.73
1725380313.257;118;10.00;44054.73
1725380313.307;118;10.00;44054.73
1725380313.357;109;10.00;44579.54
1725380313.408;254;10.00;36106.54
1725380313.458;222;10.00;37955.20
1725380313.507;203;10.00;39092.13
1725380313.557;203;10.00;39092.13
1725380313.607;203;10.00;39092.13
1725380313.657;203;10.00;39092.13
1725380313.708;125;10.00;43616.00
1725380313.758;121;10.00;43891.33
1725380313.808;235;10.00;37183.73
1725380313.857;235;10.00;37183.73
1725380313.907;235;10.00;37183.73
1725380313.958;235;10.00;37183.73
1725380314.008;153;10.00;42005.00
1725380314.058;233;10.00;37337.73
1725380314.109;221;10.00;38010.54
1725380314.159;209;10.00;38720.80
1725380314.409;181;10.00;40348.27
1725380314.459;136;10.00;42996.13
1725380314.510;223;10.00;37905.46
1725380314.559;247;10.00;36480.80
1725380314.609;247;10.00;36480.80
1725380314.660;247;10.00;36480.80
1725380314.710;175;10.00;40685.54
1725380314.760;148;10.00;42318.93
1725380314.810;162;10.00;41462.93
1725380314.861;162;10.00;41462.93
1725380314.911;162;10.00;41462.93
1725380314.961;162;10.00;41462.93
1725380315.017;246;10.00;36536.80
1725380315.063;168;10.00;41142.67
1725380332.965;233;10.00;37282.13
1725380333.015;243;10.00;36712.67
1725380333.065;257;10.00;35920.54
1725380333.316;131;10.00;43314.40
1725380333.376;146;10.00;42433.07
1725380333.421;254;10.00;36058.00
1725380333.623;190;10.00;39845.60
1725380333.722;267;10.00;35327.20
1725380333.772;267;10.00;35327.20
1725380333.822;267;10.00;35327.20
1725380333.872;264;10.00;35492.13
1725380333.922;156;10.00;41852.54
1725380334.022;237;10.00;37092.60
1725380334.073;237;10.00;37092.60
1725380334.123;237;10.00;37092.60
1725380334.172;237;10.00;37092.60
1725380334.223;144;10.00;42515.87
1725380334.272;116;10.00;44160.40
1725380334.323;119;10.00;44007.46
1725380334.374;119;10.00;44007.46
1725380334.423;119;10.00;44007.46
1725380334.473;116;10.00;44142.93
1725380334.523;141;10.00;42729.73
1725380334.574;167;10.00;41190.60
1725380334.624;167;10.00;41190.60
1725380334.673;167;10.00;41190.60
1725380334.723;167;10.00;41190.60
1725380334.773;137;10.00;42954.93
1725380334.824;177;10.00;40606.67
1725380334.873;183;10.00;40267.46
1725380334.924;142;10.00;42638.13
1725380334.974;152;10.00;42084.46
1725380335.024;152;10.00;42084.46
1725380335.073;152;10.00;42084.46
1725380335.175;134;10.00;43098.33
1725380335.224;184;10.00;40192.27
1725380335.276;137;10.00;42964.40
1725380335.326;137;10.00;42964.40
1725380335.376;137;10.00;42964.40
1725380335.426;118;10.00;44071.33
1725380335.476;136;10.00;42992.40
1725380335.526;150;10.00;42199.07
1725380335.576;266;10.00;35384.27
1725380335.626;266;10.00;35384.27
1725380335.676;266;10.00;35384.27
1725380335.726;266;10.00;35384.27
1725380335.776;181;10.00;40370.40
1725380335.826;136;10.00;42983.46
1725380335.876;251;10.00;36271.46
1725380335.926;251;10.00;36271.46
1725380335.976;251;10.00;36271.46
1725380336.026;250;10.00;36300.73
1725380336.076;144;10.00;42520.00
1725380336.126;144;10.00;42553.33
1725380336.176;138;10.00;42892.54
1725380336.226;138;10.00;42892.54
1725380336.276;138;10.00;42892.54
1725380336.327;138;10.00;42892.54
1725380336.377;98;10.00;45201.40
1725380336.426;268;10.00;35285.20
1725380336.476;207;10.00;38848.00
1725380336.526;207;10.00;38848.00
1725380336.576;207;10.00;38848.00
1725380336.626;226;10.00;37695.00
1725380336.676;143;10.00;42602.27
1725380336.727;158;10.00;41725.07
1725380336.776;150;10.00;42183.46
1725380336.826;150;10.00;42183.46
1725380336.876;150;10.00;42183.46
1725380336.927;249;10.00;36345.27
1725380336.977;177;10.00;40599.20
1725380337.027;206;10.00;38917.46
1725380337.077;206;10.00;38917.46
1725380337.127;206;10.00;38917.46
1725380337.177;206;10.00;38917.46
1725380337.227;182;10.00;40309.67
1725380337.277;123;10.00;43771.20
1725380337.327;159;10.00;41654.93
1725380337.377;159;10.00;41654.93
1725380337.428;159;10.00;41654.93
1725380337.477;159;10.00;41654.93
1725380337.577;152;10.00;42085.60
1725380337.627;126;10.00;43590.80
1725380337.677;130;10.00;43322.67
1725380337.728;130;10.00;43322.67
1725380337.777;130;10.00;43322.67
1725380337.827;120;10.00;43947.73
1725380337.877;154;10.00;41943.46
1725380337.927;165;10.00;41322.60
1725380337.977;136;10.00;43024.00
1725380338.027;136;10.00;43024.00
1725380338.077;136;10.00;43024.00
1725380338.127;211;10.00;38603.07
1725380338.177;153;10.00;42013.40
1725380338.227;208;10.00;38797.20
1725380338.278;131;10.00;43269.20
1725380338.328;131;10.00;43269.20
1725380338.377;131;10.00;43269.20
1725380338.427;112;10.00;44413.87
1725380338.477;239;10.00;36939.33
1725380338.527;188;10.00;39956.87
1725380338.577;230;10.00;37460.40
1725380338.627;230;10.00;37460.40
1725380338.678;230;10.00;37460.40
1725380338.727;138;10.00;42874.00
1725380338.777;141;10.00;42682.93
1725380338.828;124;10.00;43723.33
1725380338.877;124;10.00;43723.33
1725380338.927;124;10.00;43723.33
1725380338.978;124;10.00;43723.33
1725380339.027;203;10.00;39045.27
1725380339.078;120;10.00;43913.07
1725380339.127;120;10.00;43913.07
1725380339.177;103;10.00;44937.87
1725380339.228;103;10.00;44937.87
1725380339.277;103;10.00;44937.87
1725380339.328;103;10.00;44937.87
1725380339.391;171;10.00;40931.20
1725380339.431;171;10.00;40931.20
1725380339.481;189;10.00;39874.93
1725380339.532;180;10.00;40399.93
1725380339.582;180;10.00;40399.93
1725380339.632;180;10.00;40399.93
1725380339.681;180;10.00;40399.93
1725380339.732;191;10.00;39764.13
1725380339.781;162;10.00;41486.54
1725380339.832;248;10.00;36420.00
1725380339.883;193;10.00;39639.07
1725380339.933;193;10.00;39639.07
1725380339.984;193;10.00;39639.07
1725380340.033;113;10.00;44329.60
1725380340.084;166;10.00;41237.54
1725380340.135;130;10.00;43330.40
1725380340.184;119;10.00;43974.40
1725380340.235;119;10.00;43974.40
1725380340.284;119;10.00;43974.40
1725380340.335;119;10.00;43974.40
1725380340.385;230;10.00;37457.20
1725380340.435;179;10.00;40456.67
1725380340.486;129;10.00;43390.40
1725380340.536;129;10.00;43390.40
1725380340.586;129;10.00;43390.40
1725380340.636;163;10.00;41395.73
1725380340.686;148;10.00;42270.73
1725380340.736;208;10.00;38775.80
1725380340.786;179;10.00;40497.07
1725380340.836;179;10.00;40497.07
1725380340.886;179;10.00;40497.07
1725380340.936;179;10.00;40497.07
1725380340.986;149;10.00;42256.60
1725380341.036;163;10.00;41441.87
1725380341.086;142;10.00;42626.40
1725380341.136;142;10.00;42626.40
1725380341.187;142;10.00;42626.40
1725380341.239;150;10.00;42171.33
1725380341.286;160;10.00;41571.46
1725380341.336;190;10.00;39831.67
1725380549.880;50;28.58;39046.33
1725380549.929;50;28.58;39046.33
1725380549.980;50;28.58;39046.33
1725380550.079;50;27.43;37283.54
1725380550.130;50;27.61;37566.67
1725380550.181;50;28.14;38378.40
1725380550.230;50;28.14;38378.40
1725380550.286;50;28.14;38378.40
1725380550.331;50;28.14;38378.40
1725380550.381;50;26.22;35412.00
1725380550.431;50;32.26;44720.80
1725380550.481;50;31.27;43190.93
1725380550.681;50;27.72;37732.13
1725380550.730;50;27.21;36945.46
1725380550.780;50;29.38;40293.33
1725380550.831;50;26.45;35771.60
1725380550.881;50;26.45;35771.60
1725380550.931;50;26.45;35771.60
1725380550.982;50;26.96;36554.33
1725380551.032;50;32.17;44588.46
1725380551.081;50;32.43;44993.00
1725380551.133;50;29.19;39989.60
1725380551.182;50;29.19;39989.60
1725380551.232;50;29.19;39989.60
1725380551.284;50;30.32;41739.46
1725380551.334;50;26.38;35664.73
1725380551.383;50;28.30;38628.46
1725380551.433;50;28.30;38628.46
1725380551.483;50;28.30;38628.46
1725380551.534;50;28.30;38628.46
1725380551.584;50;27.90;37999.40
1725380551.634;50;31.22;43115.73
1725380551.683;50;32.04;44384.13
1725380551.735;50;31.32;43278.67
1725380551.784;50;31.32;43278.67
1725380551.836;50;31.32;43278.67
1725380551.886;50;31.32;43278.67
1725380551.936;50;28.06;38251.80
1725380551.986;50;27.27;37032.80
1725380552.036;50;32.14;44536.93
1725380552.086;50;29.41;40326.93
1725380552.136;50;28.52;38953.73
1725380552.186;50;28.52;38953.73
1725380552.236;50;28.52;38953.73
1725380552.286;50;30.75;42402.67
1725380552.336;50;30.54;42079.54
1725380552.386;50;29.88;41054.67
1725380552.436;50;26.94;36533.46
1725380552.486;50;26.94;36533.46
1725380552.536;50;26.94;36533.46
1725380552.586;50;26.94;36533.46
1725380552.636;50;32.14;44542.93
1725380552.686;50;33.17;46126.54
1725380552.736;50;32.50;45098.67
1725380552.786;50;30.90;42627.73
1725380552.837;50;30.90;42627.73
1725380552.886;50;30.90;42627.73
1725380552.936;50;30.01;41254.67
1725380552.986;50;30.29;41687.87
1725380553.037;50;30.46;41951.73
1725380553.087;50;29.24;40063.07
1725380553.137;50;26.95;36544.27
1725380553.188;50;26.95;36544.27
1725380553.237;50;26.95;36544.27
1725380553.287;50;28.53;38969.33
1725380553.337;50;31.35;43328.87
1725380553.387;50;31.16;43027.27
1725380553.438;50;31.71;43879.46
1725380553.487;50;31.71;43879.46
1725380553.537;50;31.71;43879.46
1725380553.588;50;29.51;40484.00
1725380553.637;50;32.80;45559.20
1725380553.687;50;31.66;43805.46
1725380553.738;50;31.91;44186.93
1725380553.788;50;31.91;44186.93
1725380553.837;50;31.91;44186.93
1725380553.888;50;29.45;40394.93
1725380553.938;50;31.62;43731.07
1725380553.988;50;27.04;36677.33
1725380554.038;50;29.58;40598.93
1725380554.089;50;29.58;40598.93
1725380554.139;50;29.58;40598.93
1725380554.188;50;30.15;41480.13
1725380554.240;50;30.96;42718.54
1725380554.290;50;31.38;43372.80
1725380554.339;50;32.57;45202.67
1725380554.390;50;32.57;45202.67
1725380554.439;50;32.57;45202.67
1725380554.490;50;32.61;45260.46
1725380554.540;50;28.68;39201.20
1725380554.590;50;26.10;35238.27
1725380554.639;50;26.10;35238.27
1725380554.690;50;26.10;35238.27
1725380554.740;50;26.10;35238.27
1725380554.790;50;29.44;40382.27
1725380554.840;50;30.97;42728.93
1725380554.890;50;27.18;36897.33
1725380554.940;50;29.71;40797.20
1725380554.990;50;29.71;40797.20
1725380555.040;50;29.71;40797.20
1725380555.090;50;33.49;46614.40
1725380555.140;50;31.36;43337.00
1725380555.190;50;31.36;43337.00
1725380555.240;50;31.58;43679.87
1725380555.290;50;31.58;43679.87
1725380555.340;50;31.58;43679.87
1725380555.391;50;32.09;44469.20
1725380555.441;50;27.30;37084.27
1725380555.491;50;29.54;40528.67
1725380555.541;50;29.54;40528.67
1725380555.591;50;29.54;40528.67
1725380555.641;50;29.54;40528.67
1725380555.691;50;33.10;46017.60
1725380555.741;50;28.00;38161.54
1725380555.791;50;26.25;35470.67
1725380555.841;50;27.55;37472.93
1725380555.891;50;27.55;37472.93
1725380555.941;50;27.55;37472.93
1725380555.991;50;28.13;38358.40
1725380556.042;50;32.85;45630.27
1725380556.092;50;29.85;41008.80
1725380556.142;50;31.56;43640.67
1725380556.193;50;31.56;43640.67
1725380556.243;50;31.56;43640.67
1725380556.294;50;28.31;38644.13
1725380556.343;50;32.25;44710.46
1725380556.393;50;29.03;39741.73
1725380556.445;50;29.03;39741.73
1725380556.506;50;29.03;39741.73
1725380556.546;50;29.03;39741.73
1725380556.595;50;32.22;44654.54
1725380556.646;50;26.76;36242.93
1725380556.746;50;31.24;43154.00
1725380556.797;50;31.24;43154.00
1725380556.847;50;31.24;43154.00
1725380556.897;50;29.47;40429.60
1725380556.947;50;32.62;45282.00
1725380556.997;50;30.30;41700.54
1725380557.047;50;30.30;41700.54
1725380557.097;50;30.30;41700.54
1725380557.147;50;30.30;41700.54
1725380557.197;50;30.82;42499.73
1725380557.247;50;32.08;44444.27
1725380557.296;50;31.84;44079.46
1725380557.347;50;31.84;44079.46
1725380557.397;50;31.84;44079.46
1725380557.447;50;31.84;44079.46
1725380557.497;50;28.30;38623.93
1725380557.547;50;28.93;39587.73
1725380557.597;50;30.27;41655.33
1725380557.647;50;26.71;36173.73
1725380557.697;50;26.71;36173.73
1725380557.747;50;26.71;36173.73
1725380557.797;50;26.48;35811.00
1725380557.847;50;31.97;44271.46
1725380557.897;50;31.93;44216.54
1725380557.948;50;32.63;45294.13
1725380557.997;50;32.63;45294.13
1725380558.048;50;32.63;45294.13
1725380558.097;50;32.63;45294.13
1725380558.148;50;28.50;38936.87
1725380558.197;50;30.61;42179.60
1725380558.247;50;31.30;43248.40
1725380558.297;50;29.59;40604.87
1725380576.226;50;27.51;37402.00
1725380576.276;50;26.59;35985.87
1725380576.326;50;26.23;35435.46
1725380576.377;50;26.36;35637.87
1725380576.426;50;26.36;35637.87
1725380576.476;50;26.36;35637.87
1725380576.527;50;27.61;37560.00
1725380576.576;50;28.52;38964.80
1725380576.826;50;27.21;36938.93
1725380576.876;50;26.32;35569.20
1725380576.926;50;26.32;35569.20
1725380576.976;50;26.32;35569.20
1725380577.026;50;26.32;35569.20
1725380577.076;50;26.65;36086.93
1725380577.127;50;32.74;45463.40
1725380577.176;50;28.07;38268.40
1725380577.226;50;28.07;38268.40
1725380577.277;50;28.07;38268.40
1725380577.326;50;28.07;38268.40
1725380577.377;50;27.47;37349.93
1725380577.427;50;31.73;43906.13
1725380577.477;50;30.88;42589.87
1725380577.527;50;28.79;39374.93
1725380577.577;50;28.79;39374.93
1725380577.627;50;28.79;39374.93
1725380577.677;50;28.79;39374.93
1725380577.728;50;30.62;42200.93
1725380577.777;50;31.21;43111.00
1725380577.827;50;30.44;41912.93
1725380577.878;50;30.44;41912.93
1725380577.927;50;30.44;41912.93
1725380577.977;50;30.44;41912.93
1725380578.027;50;27.34;37149.33
1725380578.078;50;31.28;43209.33
1725380578.277;50;26.82;36342.33
1725380578.327;50;31.64;43761.67
1725380578.378;50;26.46;35782.80
1725380578.428;50;27.05;36700.40
1725380578.478;50;27.05;36700.40
1725380578.528;50;27.05;36700.40
1725380578.578;50;27.05;36700.40
1725380578.628;50;26.98;36594.80
1725380578.678;50;29.60;40628.00
1725380578.728;50;29.83;40973.73
1725380578.779;50;29.83;40973.73
1725380578.828;50;29.83;40973.73
1725380578.878;50;29.83;40973.73
1725380578.929;50;26.86;36402.27
1725380578.979;50;29.34;40226.67
1725380579.032;50;30.70;42320.00
1725380579.080;50;27.36;37173.60
1725380579.129;50;27.36;37173.60
1725380579.181;50;27.36;37173.60
1725380579.231;50;30.47;41960.20
1725380579.281;50;32.20;44626.13
1725380579.331;50;32.06;44420.00
1725380579.381;50;27.33;37135.73
1725380579.432;50;27.33;37135.73
1725380579.482;50;27.33;37135.73
1725380579.531;50;31.68;43836.46
1725380579.582;50;29.73;40820.73
1725380579.631;50;31.12;42973.54
1725380579.682;50;31.56;43642.67
1725380579.731;50;31.56;43642.67
1725380579.783;50;31.56;43642.67
1725380579.833;50;28.61;39104.40
1725380579.933;50;32.12;44514.67
1725380579.983;50;32.12;44514.67
1725380580.034;50;32.12;44514.67
1725380580.083;50;32.12;44514.67
1725380580.133;50;31.78;43979.60
1725380580.183;50;31.09;42926.67
1725380580.233;50;31.09;42926.67
1725380580.283;50;31.09;42926.67
1725380580.334;50;31.09;42926.67
1725380580.385;50;31.09;42926.67
1725380580.435;50;26.22;35414.67
1725380580.485;50;30.29;41685.60
1725380580.534;50;32.05;44398.20
1725380580.586;50;32.05;44398.20
1725380580.636;50;32.05;44398.20
1725380580.686;50;32.05;44398.20
1725380580.736;50;28.00;38161.20
1725380580.837;50;31.99;44310.13
1725380580.886;50;31.99;44310.13
1725380580.936;50;31.99;44310.13
1725380580.987;50;31.99;44310.13
1725380581.038;50;29.12;39886.80
1725380581.088;50;26.64;36071.73
1725380581.138;50;27.04;36676.54
1725380581.338;50;29.63;40675.20
1725380581.387;50;31.60;43702.87
1725380581.437;50;28.19;38450.13
1725380581.488;50;28.19;38450.13
1725380581.538;50;28.19;38450.13
1725380581.597;50;28.19;38450.13
1725380581.638;50;26.53;35895.46
1725380581.689;50;29.17;39961.07
1725380581.738;50;30.22;41579.20
1725380581.789;50;30.22;41579.20
1725380581.839;50;30.22;41579.20
1725380581.888;50;29.19;39998.93
1725380581.940;50;27.72;37734.54
1725380581.989;50;28.00;38163.60
1725380582.039;50;29.68;40750.93
1725380582.090;50;29.68;40750.93
1725380582.139;50;29.68;40750.93
1725380582.191;50;29.68;40750.93
1725380582.240;50;30.06;41326.67
1725380582.290;50;26.27;35500.54
1725380582.342;50;29.27;40112.00
1725380582.392;50;29.27;40112.00
1725380582.442;50;29.27;40112.00
1725380582.492;50;29.27;40112.00
1725380582.542;50;32.86;45650.07
1725380582.641;50;27.66;37643.33
1725380582.693;50;27.66;37643.33
1725380582.743;50;27.66;37643.33
1725380582.793;50;27.66;37643.33
1725380582.843;50;32.57;45194.40
1725380582.894;50;29.16;39941.60
1725380582.993;50;28.28;38598.07
1725380583.043;50;28.94;39609.33
1725380583.094;50;28.94;39609.33
1725380583.144;50;28.94;39609.33
1725380583.194;50;27.24;36990.33
1725380583.245;50;27.84;37912.20
1725380583.294;50;30.05;41319.20
1725380583.344;50;29.45;40397.73
1725380583.394;50;29.45;40397.73
1725380583.444;50;29.45;40397.73
1725380583.495;50;28.54;38995.73
1725380583.546;50;31.63;43750.54
1725380583.596;50;28.89;39528.46
1725380583.646;50;32.39;44920.93
1725380583.696;50;32.39;44920.93
1725380583.746;50;32.39;44920.93
1725380583.796;50;32.79;45543.80
1725380583.846;50;33.13;46068.13
1725380583.896;50;32.12;44507.46
1725380583.947;50;32.12;44507.46
1725380583.996;50;32.12;44507.46
1725380584.046;50;32.12;44507.46
1725380584.096;50;29.01;39712.13
1725380584.147;50;32.59;45231.33
1725380584.196;50;32.29;44767.46
1725380584.246;50;32.29;44766.40
1725380584.296;50;32.29;44766.40
1725380584.346;50;32.29;44766.40
1725380584.396;50;30.64;42230.13
1725380584.446;50;32.26;44716.27
1725380584.497;50;30.91;42638.67
1725380602.313;50;26.53;35903.20
1725380602.363;50;26.38;35662.93
1725380602.413;50;26.14;35299.67
1725380602.462;50;27.11;36782.13
1725380602.513;50;27.11;36782.13
1725380602.563;50;27.11;36782.13
1725380602.613;50;27.11;36782.13
1725380602.664;50;32.29;44770.40
1725380602.714;50;27.49;37370.80
1725380602.763;50;31.19;43067.33
1725380602.813;50;30.66;42263.60
1725380602.864;50;30.66;42263.60
1725380602.915;50;30.66;42263.60
1725380602.964;50;32.31;44806.13
1725380603.015;50;32.20;44633.33
1725380603.064;50;31.33;43287.33
1725380603.115;50;32.32;44817.60
1725380603.165;50;32.32;44817.60
1725380603.215;50;32.32;44817.60
1725380603.365;50;26.15;35305.46
1725380603.415;50;27.99;38141.33
1725380603.464;50;27.99;38141.33
1725380603.515;50;27.99;38141.33
1725380603.616;50;27.37;37191.46
1725380603.666;50;26.54;35908.80
1725380603.716;50;26.54;35908.80
1725380603.766;50;26.54;35908.80
1725380603.816;50;26.54;35908.80
1725380603.866;50;32.02;44355.46
1725380604.116;50;32.92;45741.60
1725380604.166;50;32.68;45373.00
1725380604.266;50;27.28;37046.67
1725380604.317;50;27.28;37046.67
1725380604.367;50;27.28;37046.67
1725380604.416;50;28.45;38858.93
1725380604.467;50;32.52;45117.33
1725380604.516;50;30.63;42218.13
1725380604.566;50;29.51;40485.60
1725380604.617;50;29.51;40485.60
1725380604.667;50;29.51;40485.60
1725380604.717;50;29.51;40485.60
1725380604.767;50;32.31;44805.33
1725380604.817;50;31.82;44042.13
1725380604.867;50;30.99;42766.13
1725380604.917;50;30.99;42766.13
1725380604.967;50;30.99;42766.13
1725380605.018;50;30.99;42766.13
1725380605.067;50;31.61;43724.80
1725380605.117;50;29.61;40635.73
1725380605.167;50;29.57;40581.07
1725380605.217;50;29.57;40581.07
1725380605.267;50;29.57;40581.07
1725380605.317;50;28.77;39349.73
1725380605.367;50;31.78;43986.80
1725380605.417;50;32.33;44825.54
1725380605.468;50;32.33;44825.54
1725380605.517;50;32.33;44825.54
1725380605.567;50;32.33;44825.54
1725380605.617;50;32.80;45562.13
1725380605.667;50;31.88;44142.13
1725380605.718;50;26.88;36441.33
1725380605.767;50;31.48;43516.00
1725380605.817;50;31.48;43516.00
1725380605.868;50;31.48;43516.00
1725380605.917;50;31.48;43516.00
1725380605.967;50;33.42;46508.27
1725380606.017;50;28.60;39081.46
1725380606.068;50;29.45;40396.00
1725380606.117;50;29.45;40396.00
1725380606.167;50;29.45;40396.00
1725380606.218;50;29.45;40396.00
1725380606.267;50;32.49;45081.80
1725380606.318;50;26.63;36044.00
1725380606.367;50;26.50;35849.87
1725380606.418;50;26.50;35849.87
1725380606.468;50;26.50;35849.87
1725380606.517;50;26.50;35849.87
1725380606.568;50;31.30;43250.40
1725380606.618;50;30.80;42475.33
1725380606.668;50;28.38;38743.20
1725380606.718;50;28.43;38823.33
1725380606.768;50;28.43;38823.33
1725380606.819;50;28.43;38823.33
1725380606.919;50;30.84;42536.60
1725380606.968;50;27.56;37479.46
1725380607.019;50;27.56;37479.46
1725380607.069;50;27.56;37479.46
1725380607.119;50;27.56;37479.46
1725380607.169;50;32.06;44417.60
1725380607.219;50;27.77;37804.67
1725380607.269;50;28.12;38343.60
1725380607.319;50;28.12;38343.60
1725380607.369;50;28.12;38343.60
1725380607.419;50;28.11;38329.87
1725380607.469;50;26.87;36412.33
1725380607.519;50;31.35;43319.87
1725380607.570;50;32.70;45402.00
1725380607.620;50;32.70;45402.00
1725380607.670;50;32.70;45402.00
1725380607.720;50;32.70;45402.00
1725380607.771;50;26.55;35932.60
1725380607.821;50;28.52;38962.80
1725380607.870;50;30.84;42537.80
1725380607.920;50;30.84;42537.80
1725380607.972;50;30.84;42537.80
1725380608.020;50;30.84;42537.80
1725380608.071;50;32.81;45567.20
1725380608.121;50;26.70;36164.54
1725380608.172;50;31.95;44246.40
1725380608.221;50;28.68;39201.33
1725380608.272;50;28.68;39201.33
1725380608.322;50;28.68;39201.33
1725380608.372;50;30.13;41444.54
1725380608.423;50;32.32;44822.67
1725380608.473;50;33.17;46122.00
1725380608.524;50;32.80;45554.80
1725380608.573;50;32.80;45554.80
1725380608.624;50;32.80;45554.80
1725380608.674;50;32.52;45121.00
1725380608.774;50;31.93;44219.46
1725380608.824;50;31.93;44219.46
1725380608.874;50;31.93;44219.46
1725380608.924;50;31.93;44219.46
1725380608.975;50;32.94;45773.33
1725380609.025;50;29.63;40668.27
1725380609.075;50;32.71;45414.13
1725380609.124;50;32.71;45414.13
1725380609.176;50;32.71;45414.13
1725380609.225;50;32.71;45414.13
1725380609.278;50;26.20;35383.73
1725380609.328;50;27.26;37026.13
1725380609.378;50;31.25;43169.93
1725380609.428;50;30.32;41727.46
1725380609.479;50;30.32;41727.46
1725380609.528;50;30.32;41727.46
1725380609.578;50;31.41;43411.73
1725380609.628;50;29.10;39849.20
1725380609.679;50;30.95;42699.46
1725380609.730;50;29.54;40534.13
1725380609.780;50;29.54;40534.13
1725380609.830;50;29.54;40534.13
1725380609.881;50;29.16;39944.33
1725380609.931;50;33.90;47245.87
1725380609.982;50;30.91;42650.54
1725380610.031;50;31.00;42781.07
1725380610.082;50;31.00;42781.07
1725380610.132;50;31.00;42781.07
1725380610.182;50;32.31;44801.33
1725380610.232;50;31.87;44116.54
1725380610.533;50;26.13;35282.00
1725380839.650;200;26.85;36387.60
1725380839.949;200;32.40;44943.80
1725380840.050;200;27.39;37218.40
1725380840.100;200;27.39;37218.40
1725380840.150;200;27.39;37218.40
1725380840.199;200;27.78;37821.33
1725380840.250;200;31.61;43728.67
1725380840.300;200;30.17;41502.40
1725380840.350;200;30.17;41502.40
1725380840.400;200;30.17;41502.40
1725380840.451;200;30.17;41502.40
1725380840.502;200;26.47;35795.73
1725380840.551;200;31.34;43311.46
1725380840.601;200;31.87;44124.54
1725380840.652;200;32.42;44966.67
1725380840.703;200;32.42;44966.67
1725380840.753;200;32.42;44966.67
1725380840.803;200;32.42;44966.67
1725380840.854;200;30.93;42676.33
1725380840.904;200;31.47;43501.60
1725380840.955;200;27.21;36943.40
1725380841.006;200;26.89;36453.67
1725380841.056;200;29.86;41021.67
1725380841.107;200;29.86;41021.67
1725380841.156;200;29.86;41021.67
1725380841.207;200;29.66;40710.40
1725380841.257;200;32.08;44442.13
1725380841.306;200;31.16;43034.13
1725380841.356;200;26.39;35685.33
1725380841.406;200;31.33;43290.13
1725380841.456;200;31.33;43290.13
1725380841.507;200;31.33;43290.13
1725380841.557;200;30.97;42738.93
1725380841.606;200;30.95;42712.67
1725380841.707;200;32.19;44620.54
1725380841.756;200;32.19;44620.54
1725380841.806;200;32.19;44620.54
1725380841.856;200;32.19;44620.54
1725380841.956;200;31.09;42913.33
1725380842.007;200;31.42;43433.07
1725380842.056;200;31.47;43512.27
1725380842.106;200;31.47;43512.27
1725380842.157;200;31.47;43512.27
1725380842.206;200;31.47;43512.27
1725380842.257;200;27.30;37087.20
1725380842.307;200;31.95;44238.67
1725380842.607;200;31.60;43703.46
1725380842.657;200;30.83;42523.46
1725380842.707;200;29.42;40351.73
1725380842.758;200;29.78;40901.73
1725380842.807;200;30.91;42650.20
1725380842.857;200;30.91;42650.20
1725380842.908;200;30.91;42650.20
1725380842.957;200;27.58;37509.60
1725380843.007;200;31.43;43450.73
1725380843.058;200;31.09;42927.73
1725380843.107;200;32.45;45013.33
1725380843.158;200;32.45;45013.33
1725380843.207;200;32.45;45013.33
1725380843.258;200;32.45;45013.33
1725380843.308;200;32.45;45013.33
1725380843.358;200;26.34;35600.40
1725380843.407;200;27.47;37348.93
1725380843.458;200;31.30;43250.40
1725380843.508;200;26.86;36406.13
1725380843.558;200;26.86;36406.13
1725380843.607;200;26.86;36406.13
1725380843.658;200;26.58;35972.54
1725380843.707;200;31.34;43302.67
1725380843.758;200;32.78;45528.00
1725380843.808;200;32.66;45346.93
1725380843.857;200;32.90;45711.46
1725380843.908;200;32.90;45711.46
1725380843.958;200;32.90;45711.46
1725380844.009;200;33.22;46203.73
1725380844.059;200;28.37;38735.87
1725380844.108;200;28.19;38453.60
1725380844.159;200;31.07;42893.80
1725380844.209;200;31.07;42893.80
1725380844.259;200;31.07;42893.80
1725380844.309;200;31.07;42893.80
1725380844.359;200;30.94;42693.20
1725380844.409;200;33.08;45981.60
1725380844.459;200;31.68;43824.00
1725380844.510;200;31.58;43682.07
1725380844.560;200;31.58;43682.07
1725380844.610;200;31.58;43682.07
1725380844.660;200;32.99;45855.54
1725380844.710;200;30.88;42598.67
1725380844.760;200;28.97;39650.93
1725380844.810;200;27.89;37991.93
1725380844.860;200;27.89;37991.93
1725380844.910;200;27.89;37991.93
1725380844.961;200;31.37;43353.87
1725380845.011;200;31.95;44241.40
1725380845.111;200;27.27;37037.60
1725380845.162;200;27.27;37037.60
1725380845.212;200;27.27;37037.60
1725380845.262;200;27.59;37524.54
1725380845.313;200;30.11;41403.46
1725380845.363;200;31.56;43638.60
1725380845.464;200;29.11;39864.80
1725380845.513;200;29.11;39864.80
1725380845.564;200;29.11;39864.80
1725380845.614;200;29.11;39864.80
1725380845.664;200;27.89;37992.67
1725380845.714;200;26.62;36028.93
1725380845.763;200;31.67;43812.27
1725380845.815;200;31.09;42924.00
1725380845.864;200;31.09;42924.00
1725380845.915;200;31.09;42924.00
1725380845.965;200;31.17;43038.93
1725380846.014;200;28.82;39422.54
1725380846.266;200;31.56;43641.07
1725380846.316;200;31.79;44000.80
1725380846.366;200;26.76;36246.13
1725380846.416;200;26.76;36246.13
1725380846.466;200;26.76;36246.13
1725380846.516;200;26.76;36246.13
1725380846.566;200;27.46;37330.54
1725380846.617;200;31.06;42875.54
1725380846.666;200;28.93;39594.13
1725380846.717;200;28.93;39594.13
1725380846.767;200;28.93;39594.13
1725380846.817;200;28.93;39594.13
1725380846.866;200;33.13;46057.33
1725380846.916;200;34.28;47828.80
1725380846.967;200;31.32;43278.93
1725380847.017;200;31.32;43278.93
1725380847.067;200;31.32;43278.93
1725380847.117;200;31.32;43278.93
1725380847.168;200;31.51;43561.33
1725380847.217;200;30.13;41434.93
1725380847.267;200;28.34;38688.33
1725380847.318;200;31.52;43582.67
1725380847.368;200;31.52;43582.67
1725380847.417;200;31.52;43582.67
1725380847.467;200;30.96;42722.93
1725380847.518;200;30.72;42349.33
1725380847.568;200;31.57;43660.93
1725380847.617;200;32.73;45453.87
1725380847.667;200;32.73;45453.87
1725380847.718;200;32.73;45453.87
1725380847.767;200;32.73;45453.87
1725380847.817;200;31.83;44068.00
1725380847.868;200;31.17;43046.93
1725380847.917;200;29.92;41112.93
1725380847.967;200;27.04;36688.13
1725380848.018;200;27.04;36688.13
1725380848.068;200;27.04;36688.13
1725380848.118;200;27.04;36688.13
1725380848.168;200;28.85;39471.33
1725380848.218;200;28.78;39360.54
1725380848.268;200;31.43;43451.87
1725380848.318;200;31.48;43527.73
1725380848.369;200;32.68;45362.93
1725380848.419;200;32.68;45362.93
1725380848.470;200;32.68;45362.93
1725380848.520;200;29.19;39993.07
1725380848.570;200;30.96;42719.20
1725380848.620;200;31.49;43530.67
1725380848.669;200;30.73;42367.60
1725380866.688;200;26.74;36212.00
1725380866.988;200;30.89;42610.93
1725380867.339;200;26.47;35803.46
1725380867.388;200;26.47;35803.46
1725380867.438;200;26.47;35803.46
1725380867.488;200;29.39;40306.67
1725380867.539;200;26.65;36084.00
1725380867.588;200;28.51;38944.93
1725380867.638;200;31.21;43113.33
1725380867.688;200;31.21;43113.33
1725380867.739;200;31.21;43113.33
1725380867.788;200;31.21;43113.33
1725380867.840;200;29.56;40569.40
1725380867.890;200;30.05;41315.73
1725380867.990;200;31.87;44129.20
1725380868.040;200;31.87;44129.20
1725380868.090;200;31.87;44129.20
1725380868.140;200;31.87;44129.20
1725380868.240;200;26.88;36433.07
1725380868.289;200;28.11;38331.46
1725380868.340;200;28.11;38331.46
1725380868.390;200;28.11;38331.46
1725380868.440;200;28.11;38331.46
1725380868.490;200;29.69;40767.73
1725380868.539;200;31.28;43208.27
1725380868.590;200;30.81;42484.27
1725380868.640;200;30.81;42484.27
1725380868.689;200;30.81;42484.27
1725380868.739;200;30.81;42484.27
1725380868.790;200;31.43;43440.67
1725380868.840;200;32.21;44649.07
1725380868.890;200;32.26;44724.67
1725380868.940;200;32.26;44724.67
1725380868.990;200;32.26;44724.67
1725380869.040;200;32.26;44724.67
1725380869.090;200;26.26;35475.73
1725380869.141;200;28.01;38175.20
1725380869.190;200;30.41;41865.87
1725380869.240;200;30.94;42692.40
1725380869.291;200;30.94;42692.40
1725380869.341;200;30.94;42692.40
1725380869.391;200;28.95;39630.00
1725380869.441;200;29.34;40225.46
1725380869.491;200;32.70;45398.27
1725380869.541;200;31.84;44070.80
1725380869.591;200;31.84;44070.80
1725380869.642;200;31.84;44070.80
1725380869.691;200;33.17;46120.27
1725380869.742;200;32.73;45444.27
1725380869.791;200;30.97;42738.27
1725380869.842;200;32.41;44955.46
1725380869.891;200;32.41;44955.46
1725380869.942;200;32.41;44955.46
1725380869.992;200;31.87;44127.20
1725380870.041;200;30.78;42444.46
1725380870.092;200;28.61;39100.80
1725380870.142;200;28.60;39090.80
1725380870.191;200;28.60;39090.80
1725380870.242;200;28.60;39090.80
1725380870.291;200;32.06;44409.33
1725380870.342;200;29.94;41144.67
1725380870.392;200;27.71;37712.27
1725380870.441;200;27.51;37398.93
1725380870.493;200;27.51;37398.93
1725380870.544;200;27.51;37398.93
1725380870.643;200;31.52;43590.40
1725380870.695;200;31.52;43590.40
1725380870.744;200;31.50;43555.60
1725380870.794;200;28.44;38835.73
1725380870.844;200;28.44;38835.73
1725380870.894;200;28.44;38835.73
1725380870.944;200;28.44;38835.73
1725380870.994;200;29.54;40537.07
1725380871.045;200;28.38;38748.13
1725380871.094;200;30.90;42624.54
1725380871.146;200;32.96;45796.80
1725380871.196;200;31.23;43131.46
1725380871.246;200;31.23;43131.46
1725380871.296;200;31.23;43131.46
1725380871.346;200;31.23;43131.46
1725380871.396;200;28.74;39307.40
1725380871.446;200;31.96;44257.07
1725380871.496;200;28.25;38538.93
1725380871.547;200;28.09;38302.93
1725380871.596;200;28.09;38302.93
1725380871.647;200;28.09;38302.93
1725380871.696;200;28.09;38302.93
1725380871.747;200;32.15;44559.46
1725380871.797;200;33.28;46297.87
1725380871.847;200;30.93;42675.00
1725380871.897;200;31.89;44148.93
1725380871.948;200;31.74;43914.73
1725380871.997;200;31.74;43914.73
1725380872.048;200;31.74;43914.73
1725380872.098;200;30.96;42719.20
1725380872.149;200;29.49;40459.46
1725380872.199;200;32.44;44998.40
1725380872.299;200;31.61;43722.40
1725380872.348;200;31.61;43722.40
1725380872.399;200;31.61;43722.40
1725380872.448;200;31.61;43722.40
1725380872.498;200;32.86;45642.67
1725380872.549;200;27.48;37356.40
1725380872.599;200;31.12;42960.80
1725380872.649;200;32.01;44343.40
1725380872.698;200;32.20;44627.40
1725380872.750;200;32.20;44627.40
1725380872.798;200;32.20;44627.40
1725380872.849;200;32.79;45546.80
1725380872.899;200;31.70;43866.40
1725380872.950;200;32.93;45750.54
1725380872.999;200;26.81;36325.20
1725380873.050;200;26.36;35634.13
1725380873.099;200;26.36;35634.13
1725380873.149;200;26.36;35634.13
1725380873.200;200;26.94;36531.87
1725380873.251;200;28.20;38475.73
1725380873.300;200;31.65;43776.93
1725380873.351;200;31.21;43099.33
1725380873.400;200;31.21;43099.33
1725380873.451;200;31.21;43099.33
1725380873.501;200;31.21;43099.33
1725380873.552;200;31.73;43909.60
1725380873.602;200;31.01;42791.07
1725380873.652;200;27.21;36945.33
1725380873.752;200;33.24;46229.46
1725380873.802;200;33.24;46229.46
1725380873.853;200;33.24;46229.46
1725380873.902;200;29.68;40751.07
1725380873.952;200;31.80;44016.67
1725380874.002;200;28.95;39621.60
1725380874.052;200;31.05;42858.13
1725380874.102;200;30.73;42369.87
1725380874.153;200;30.73;42369.87
1725380874.203;200;30.73;42369.87
1725380874.253;200;30.73;42369.87
1725380874.303;200;27.87;37966.27
1725380874.353;200;27.08;36737.80
1725380874.403;200;31.58;43674.13
1725380874.453;200;33.52;46668.27
1725380874.503;200;33.52;46668.27
1725380874.553;200;33.52;46668.27
1725380874.603;200;33.52;46668.27
1725380874.653;200;26.69;36136.13
1725380874.702;200;27.18;36893.13
1725380874.753;200;31.01;42801.60
1725380874.803;200;26.85;36383.33
1725380874.853;200;26.85;36383.33
1725380874.903;200;26.85;36383.33
1725380874.954;200;26.85;36383.33
1725380875.053;200;31.65;43777.33
1725380875.104;200;32.93;45752.40
1725380875.354;200;26.98;36594.13
1725380875.404;200;30.03;41284.60
1725380875.454;200;29.27;40122.54
1725380875.506;200;31.61;43718.67
1725380875.556;200;31.61;43718.67
1725380875.606;200;31.61;43718.67
1725380875.655;200;31.61;43718.67
1725380875.756;200;31.30;43242.00
1725380875.806;200;31.74;43915.73
1725380894.717;200;27.02;36647.73
1725380894.767;200;27.11;36789.46
1725380894.818;200;27.67;37654.80
1725380894.868;200;27.67;37654.80
1725380894.917;200;27.67;37654.80
1725380894.968;200;27.67;37654.80
1725380895.018;200;26.47;35808.93
1725380895.068;200;26.71;36166.40
1725380895.118;200;30.58;42138.20
1725380895.168;200;31.12;42969.07
1725380895.218;200;31.12;42969.07
1725380895.268;200;31.12;42969.07
1725380895.318;200;31.48;43522.13
1725380895.368;200;30.38;41822.40
1725380895.418;200;31.68;43822.93
1725380895.468;200;31.68;43822.93
1725380895.518;200;31.68;43822.93
1725380895.568;200;31.68;43822.93
1725380895.618;200;27.67;37654.40
1725380895.668;200;31.56;43637.33
1725380895.718;200;31.35;43314.93
1725380895.768;200;32.59;45235.46
1725380895.819;200;32.59;45235.46
1725380895.868;200;32.59;45235.46
1725380895.918;200;32.19;44609.60
1725380895.968;200;31.78;43978.07
1725380896.018;200;31.45;43469.73
1725380896.069;200;30.65;42245.87
1725380896.118;200;30.65;42245.87
1725380896.169;200;32.46;45038.00
1725380896.219;200;32.46;45038.00
1725380896.269;200;32.46;45038.00
1725380896.319;200;26.45;35769.07
1725380896.369;200;30.58;42133.60
1725380896.419;200;31.92;44200.54
1725380896.469;200;32.49;45072.27
1725380896.519;200;32.49;45072.27
1725380896.570;200;32.49;45072.27
1725380896.619;200;32.49;45072.27
1725380896.669;200;29.93;41126.27
1725380896.719;200;27.09;36760.13
1725380896.771;200;30.13;41434.67
1725380896.820;200;30.96;42716.00
1725380896.870;200;30.90;42621.33
1725380896.920;200;30.90;42621.33
1725380896.970;200;30.90;42621.33
1725380897.021;200;31.34;43309.07
1725380897.070;200;27.71;37709.40
1725380897.121;200;32.87;45668.80
1725380897.171;200;31.96;44255.73
1725380897.222;200;30.61;42188.80
1725380897.272;200;30.61;42188.80
1725380897.322;200;30.61;42188.80
1725380897.372;200;30.61;42188.80
1725380897.423;200;31.05;42856.54
1725380897.473;200;31.78;43977.07
1725380897.523;200;30.76;42409.46
1725380897.572;200;26.37;35646.67
1725380897.623;200;26.37;35646.67
1725380897.674;200;26.37;35646.67
1725380897.723;200;27.55;37466.13
1725380897.774;200;27.65;37618.40
1725380897.823;200;31.29;43231.46
1725380897.873;200;31.08;42906.67
1725380897.923;200;31.08;42906.67
1725380897.973;200;31.08;42906.67
1725380898.024;200;31.08;42906.67
1725380898.074;200;26.52;35881.93
1725380898.124;200;26.12;35262.54
1725380898.174;200;31.98;44293.60
1725380898.225;200;27.17;36876.13
1725380898.275;200;27.17;36876.13
1725380898.325;200;27.17;36876.13
1725380898.376;200;27.17;36876.13
1725380898.476;200;27.64;37603.07
1725380898.526;200;31.86;44107.07
1725380898.577;200;31.86;44107.07
1725380898.627;200;31.86;44107.07
1725380898.677;200;31.86;44107.07
1725380898.727;200;26.50;35850.54
1725380898.777;200;31.48;43527.80
1725380898.828;200;27.08;36741.33
1725380898.877;200;27.08;36741.33
1725380898.927;200;27.08;36741.33
1725380898.977;200;27.08;36741.33
1725380899.027;200;27.64;37612.00
1725380899.078;200;30.04;41297.07
1725380899.127;200;31.95;44240.00
1725380899.177;200;31.95;44240.00
1725380899.228;200;31.95;44240.00
1725380899.278;200;31.95;44240.00
1725380899.327;200;28.11;38335.60
1725380899.377;200;29.36;40262.40
1725380899.429;200;28.95;39618.54
1725380899.479;200;28.93;39592.13
1725380899.529;200;28.93;39592.13
1725380899.579;200;28.93;39592.13
1725380899.629;200;28.08;38284.00
1725380899.728;200;31.22;43114.13
1725380899.779;200;31.38;43361.60
1725380899.829;200;31.38;43361.60
1725380899.878;200;31.38;43361.60
1725380899.929;200;31.38;43361.60
1725380899.979;200;26.83;36352.40
1725380900.029;200;30.39;41835.07
1725380900.079;200;31.50;43549.54
1725380900.131;200;31.93;44211.60
1725380900.180;200;31.93;44211.60
1725380900.231;200;31.93;44211.60
1725380900.281;200;31.93;44211.60
1725380900.331;200;31.26;43187.20
1725380900.381;200;32.11;44485.93
1725380900.431;200;28.54;38994.60
1725380900.481;200;30.95;42705.07
1725380900.532;200;30.95;42705.07
1725380900.581;200;30.95;42705.07
1725380900.632;200;31.84;44081.87
1725380900.681;200;30.78;42448.80
1725380900.733;200;30.92;42659.73
1725380900.783;200;30.92;42659.73
1725380900.833;200;30.92;42659.73
1725380900.883;200;30.92;42659.73
1725380900.933;200;30.99;42765.07
1725380900.983;200;30.22;41586.80
1725380901.033;200;29.92;41122.80
1725380901.083;200;29.92;41122.80
1725380901.133;200;29.92;41122.80
1725380901.183;200;29.92;41122.80
1725380901.233;200;31.34;43303.73
1725380901.333;200;27.31;37102.07
1725380901.383;200;27.31;37102.07
1725380901.433;200;27.31;37102.07
1725380901.483;200;27.31;37102.07
1725380901.533;200;30.04;41308.13
1725380901.583;200;30.56;42104.27
1725380901.633;200;30.67;42275.73
1725380901.683;200;31.92;44200.40
1725380901.733;200;31.92;44200.40
1725380901.783;200;31.92;44200.40
1725380901.833;200;30.21;41567.00
1725380901.883;200;29.43;40358.87
1725380901.933;200;27.93;38054.40
1725380901.983;200;30.44;41918.93
1725380902.033;200;29.54;40537.60
1725380902.083;200;29.54;40537.60
1725380902.134;200;29.54;40537.60
1725380902.184;200;28.31;38633.46
1725380902.233;200;30.51;42028.67
1725380902.284;200;31.78;43980.27
1725380902.333;200;31.20;43094.13
1725380902.384;200;31.20;43094.13
1725380902.434;200;31.20;43094.13
1725380902.484;200;31.20;43094.13
1725380902.534;200;31.17;43041.87
1725380902.584;200;28.58;39059.33
1725380902.634;200;30.40;41856.93
1725380902.684;200;31.78;43991.20
1725380902.734;200;31.78;43991.20
1725380902.784;200;31.78;43991.20
1725380902.834;200;31.09;42914.67
1725380902.884;200;31.99;44301.93
1725380902.934;200;30.73;42368.54
1725380902.984;200;31.44;43458.93
1725380903.034;200;31.44;43458.93
1725380903.084;200;31.44;43458.93
1725380903.134;200;28.77;39340.20
1725380903.184;200;26.51;35858.40
1725380903.234;200;27.91;38020.93
1725380903.284;200;27.91;38020.93
1725380903.336;200;27.91;38020.93
1725380903.386;200;27.91;38020.93
1725380903.436;200;26.19;35366.33
1725380903.486;200;32.18;44594.07
1725381041.439;258;40.00;35823.87
1725381041.490;258;40.00;35823.87
1725381041.540;258;40.00;35823.87
1725381041.589;258;40.00;35823.87
1725381041.639;258;40.00;35823.87
1725381041.689;251;40.00;36261.07
1725381041.739;125;40.00;43625.40
1725381041.791;143;40.00;42558.67
1725381041.841;143;40.00;42558.67
1725381041.891;143;40.00;42558.67
1725381041.941;143;40.00;42558.67
1725381041.991;131;40.00;43317.20
1725381042.042;131;40.00;43317.20
1725381042.092;143;40.00;42566.93
1725381042.142;143;40.00;42566.93
1725381042.192;143;40.00;42566.93
1725381042.242;142;40.00;42663.20
1725381042.342;129;40.00;43405.87
1725381042.393;248;40.00;36426.67
1725381042.443;248;40.00;36426.67
1725381042.493;248;40.00;36426.67
1725381042.543;190;40.00;39826.67
1725381042.643;142;40.00;42654.80
1725381042.693;269;40.00;35205.13
1725381042.744;269;40.00;35205.13
1725381042.793;269;40.00;35205.13
1725381042.844;269;40.00;35205.13
1725381042.893;137;40.00;42959.93
1725381042.943;245;40.00;36580.93
1725381042.993;114;40.00;44260.27
1725381043.044;114;40.00;44260.27
1725381043.094;114;40.00;44260.27
1725381043.143;114;40.00;44260.27
1725381043.193;203;40.00;39066.20
1725381043.243;114;40.00;44305.27
1725381043.294;214;40.00;38444.93
1725381043.344;214;40.00;38444.93
1725381043.393;214;40.00;38444.93
1725381043.445;214;40.00;38444.93
1725381043.545;176;40.00;40634.40
1725381043.594;262;40.00;35608.80
1725381043.644;193;40.00;39625.60
1725381043.696;193;40.00;39625.60
1725381043.746;193;40.00;39625.60
1725381043.796;176;40.00;40636.54
1725381043.846;243;40.00;36733.40
1725381043.896;269;40.00;35202.93
1725381043.946;269;40.00;35202.93
1725381043.996;269;40.00;35202.93
1725381044.047;187;40.00;39994.07
1725381044.096;133;40.00;43159.67
1725381044.147;124;40.00;43694.20
1725381044.197;200;40.00;39253.54
1725381044.247;200;40.00;39253.54
1725381044.297;200;40.00;39253.54
1725381044.347;200;40.00;39253.54
1725381044.397;153;40.00;42009.20
1725381044.447;202;40.00;39147.46
1725381044.497;124;40.00;43685.46
1725381044.547;124;40.00;43685.46
1725381044.598;124;40.00;43685.46
1725381044.648;124;40.00;43685.46
1725381044.699;145;40.00;42456.80
1725381044.748;129;40.00;43386.20
1725381045.049;169;40.00;41059.73
1725381045.099;187;40.00;40020.80
1725381045.150;184;40.00;40182.67
1725381045.200;184;40.00;40182.67
1725381045.249;184;40.00;40182.67
1725381045.299;256;40.00;35943.46
1725381045.349;115;40.00;44207.54
1725381045.400;118;40.00;44026.40
1725381045.450;118;40.00;44026.40
1725381045.500;118;40.00;44026.40
1725381045.550;118;40.00;44026.40
1725381045.650;268;40.00;35280.73
1725381045.700;199;40.00;39324.00
1725381045.750;199;40.00;39324.00
1725381045.800;199;40.00;39324.00
1725381045.850;101;40.00;45042.73
1725381045.900;156;40.00;41803.46
1725381045.951;103;40.00;44911.46
1725381046.000;249;40.00;36359.33
1725381046.051;249;40.00;36359.33
1725381046.100;249;40.00;36359.33
1725381046.150;250;40.00;36286.73
1725381046.201;89;40.00;45734.00
1725381046.251;148;40.00;42314.67
1725381046.301;89;40.00;45747.73
1725381046.351;89;40.00;45747.73
1725381046.401;89;40.00;45747.73
1725381046.452;89;40.00;45747.73
1725381046.502;116;40.00;44185.73
1725381046.552;100;40.00;45107.93
1725381046.601;232;40.00;37349.54
1725381046.652;189;40.00;39917.87
1725381046.702;189;40.00;39917.87
1725381046.752;189;40.00;39917.87
1725381046.801;189;40.00;39917.87
1725381046.851;248;40.00;36440.40
1725381046.902;135;40.00;43053.87
1725381046.952;146;40.00;42419.54
1725381047.002;142;40.00;42656.40
1725381047.052;142;40.00;42656.40
1725381047.103;142;40.00;42656.40
1725381047.152;152;40.00;42054.40
1725381047.203;139;40.00;42839.46
1725381047.252;111;40.00;44454.13
1725381047.302;185;40.00;40139.07
1725381047.353;185;40.00;40139.07
1725381047.403;185;40.00;40139.07
1725381047.453;185;40.00;40139.07
1725381047.554;252;40.00;36221.87
1725381047.756;237;40.00;37064.07
1725381047.856;161;40.00;41537.60
1725381047.906;207;40.00;38816.00
1725381047.956;207;40.00;38816.00
1725381048.006;207;40.00;38816.00
1725381048.056;207;40.00;38816.00
1725381048.106;207;40.00;38816.00
1725381048.156;262;40.00;35595.87
1725381048.206;138;40.00;42854.00
1725381048.256;128;40.00;43446.40
1725381048.606;210;40.00;38676.87
1725381048.656;210;40.00;38676.87
1725381048.706;210;40.00;38676.87
1725381048.756;210;40.00;38676.87
1725381048.806;239;40.00;36948.54
1725381048.856;239;40.00;36948.54
1725381048.906;138;40.00;42889.73
1725381048.956;138;40.00;42889.73
1725381049.006;138;40.00;42889.73
1725381049.056;138;40.00;42889.73
1725381049.106;106;40.00;44745.60
1725381049.157;127;40.00;43509.20
1725381049.207;107;40.00;44717.33
1725381049.257;107;40.00;44717.33
1725381049.307;107;40.00;44717.33
1725381049.357;107;40.00;44717.33
1725381049.407;117;40.00;44133.87
1725381049.457;209;40.00;38706.00
1725381049.507;252;40.00;36203.93
1725381049.557;252;40.00;36203.93
1725381049.607;252;40.00;36203.93
1725381049.657;252;40.00;36203.93
1725381049.707;247;40.00;36518.20
1725381049.757;247;40.00;36515.73
1725381068.046;264;40.00;35485.46
1725381068.096;264;40.00;35485.46
1725381068.146;264;40.00;35485.46
1725381068.196;264;40.00;35485.46
1725381068.246;244;40.00;36674.00
1725381068.296;224;40.00;37843.20
1725381068.346;247;40.00;36471.33
1725381068.396;247;40.00;36471.33
1725381068.446;247;40.00;36471.33
1725381068.496;251;40.00;36231.73
1725381068.546;125;40.00;43633.87
1725381068.596;127;40.00;43506.27
1725381068.796;206;40.00;38914.93
1725381068.846;116;40.00;44166.13
1725381068.946;231;40.00;37438.67
1725381068.996;231;40.00;37438.67
1725381069.046;231;40.00;37438.67
1725381069.096;145;40.00;42495.46
1725381069.146;245;40.00;36591.80
1725381069.196;245;40.00;36591.80
1725381069.246;245;40.00;36591.80
1725381069.297;245;40.00;36591.80
1725381069.347;251;40.00;36282.13
1725381069.397;85;40.00;45988.80
1725381069.447;125;40.00;43633.33
1725381069.497;125;40.00;43633.33
1725381069.547;125;40.00;43633.33
1725381069.597;125;40.00;43633.33
1725381069.646;116;40.00;44195.46
1725381069.697;123;40.00;43742.07
1725381069.746;126;40.00;43590.93
1725381069.797;126;40.00;43590.93
1725381069.846;126;40.00;43590.93
1725381069.897;133;40.00;43149.87
1725381069.946;94;40.00;45472.80
1725381069.997;148;40.00;42300.80
1725381070.047;148;40.00;42300.80
1725381070.097;148;40.00;42300.80
1725381070.147;148;40.00;42300.80
1725381070.247;108;40.00;44657.07
1725381070.297;127;40.00;43507.07
1725381070.347;127;40.00;43507.07
1725381070.397;127;40.00;43507.07
1725381070.446;127;40.00;43507.07
1725381070.497;147;40.00;42354.67
1725381070.547;189;40.00;39894.67
1725381070.597;199;40.00;39276.46
1725381070.647;199;40.00;39276.46
1725381070.697;199;40.00;39276.46
1725381070.747;199;40.00;39276.46
1725381070.797;118;40.00;44075.33
1725381070.847;233;40.00;37294.54
1725381070.897;197;40.00;39439.46
1725381070.948;196;40.00;39498.00
1725381070.997;196;40.00;39498.00
1725381071.047;196;40.00;39498.00
1725381071.097;164;40.00;41342.93
1725381071.147;125;40.00;43611.27
1725381071.198;94;40.00;45473.87
1725381071.247;105;40.00;44789.60
1725381071.297;105;40.00;44789.60
1725381071.347;105;40.00;44789.60
1725381071.447;113;40.00;44334.00
1725381071.497;123;40.00;43786.27
1725381071.547;123;40.00;43786.27
1725381071.597;123;40.00;43786.27
1725381071.647;123;40.00;43786.27
1725381071.697;256;40.00;35964.80
1725381071.747;109;40.00;44571.20
1725381071.798;109;40.00;44571.20
1725381071.848;109;40.00;44571.20
1725381071.898;109;40.00;44571.20
1725381071.948;152;40.00;42037.60
1725381071.998;148;40.00;42293.33
1725381072.047;251;40.00;36266.54
1725381072.298;117;40.00;44084.00
1725381072.398;161;40.00;41517.60
1725381072.448;240;40.00;36896.00
1725381072.498;240;40.00;36896.00
1725381072.548;240;40.00;36896.00
1725381072.598;149;40.00;42218.80
1725381072.648;193;40.00;39668.87
1725381072.698;134;40.00;43099.87
1725381072.747;176;40.00;40655.20
1725381072.798;176;40.00;40655.20
1725381072.848;176;40.00;40655.20
1725381072.898;120;40.00;43914.54
1725381072.949;124;40.00;43727.87
1725381072.999;124;40.00;43727.87
1725381073.199;229;40.00;37523.33
1725381073.250;133;40.00;43189.00
1725381073.301;132;40.00;43211.40
1725381073.351;187;40.00;40018.13
1725381073.401;187;40.00;40018.13
1725381073.452;187;40.00;40018.13
1725381073.502;187;40.00;40018.13
1725381073.552;183;40.00;40243.67
1725381073.602;230;40.00;37468.67
1725381073.653;135;40.00;43068.54
1725381073.702;142;40.00;42651.73
1725381073.754;142;40.00;42651.73
1725381073.803;142;40.00;42651.73
1725381073.853;142;40.00;42651.73
1725381073.903;195;40.00;39521.80
1725381073.953;104;40.00;44864.00
1725381074.004;111;40.00;44433.73
1725381074.054;111;40.00;44433.73
1725381074.104;111;40.00;44433.73
1725381074.154;111;40.00;44433.73
1725381074.204;131;40.00;43308.54
1725381074.255;247;40.00;36482.40
1725381074.305;116;40.00;44182.40
1725381074.354;115;40.00;44229.33
1725381074.405;115;40.00;44229.33
1725381074.454;115;40.00;44229.33
1725381074.505;110;40.00;44515.07
1725381074.555;222;40.00;37939.93
1725381074.656;258;40.00;35855.60
1725381074.706;258;40.00;35855.60
1725381074.756;258;40.00;35855.60
1725381074.806;179;40.00;40490.07
1725381074.857;146;40.00;42414.13
1725381074.906;112;40.00;44410.13
1725381074.957;112;40.00;44410.13
1725381075.007;112;40.00;44410.13
1725381075.057;112;40.00;44410.13
1725381075.107;219;40.00;38136.54
1725381075.157;168;40.00;41128.27
1725381075.207;150;40.00;42178.93
1725381075.257;150;40.00;42178.93
1725381075.306;150;40.00;42178.93
1725381075.356;150;40.00;42178.93
1725381075.407;251;40.00;36228.80
1725381075.458;125;40.00;43630.13
1725381075.508;182;40.00;40275.46
1725381075.557;182;40.00;40275.46
1725381075.608;182;40.00;40275.46
1725381075.658;261;40.00;35671.60
1725381075.707;125;40.00;43668.67
1725381075.758;185;40.00;40135.20
1725381075.807;199;40.00;39309.07
1725381075.857;199;40.00;39309.07
1725381075.908;199;40.00;39309.07
1725381075.958;199;40.00;39309.07
1725381076.008;197;40.00;39410.13
1725381076.058;142;40.00;42668.00
1725381094.476;267;40.00;35288.67
1725381094.577;261;40.00;35654.67
1725381094.626;261;40.00;35654.67
1725381094.677;261;40.00;35654.67
1725381094.726;263;40.00;35563.60
1725381094.776;156;40.00;41831.46
1725381094.876;266;40.00;35372.13
1725381094.927;266;40.00;35372.13
1725381094.977;266;40.00;35372.13
1725381095.027;268;40.00;35278.27
1725381095.077;242;40.00;36789.60
1725381095.127;198;40.00;39352.00
1725381095.177;198;40.00;39352.00
1725381095.227;198;40.00;39352.00
1725381095.277;198;40.00;39352.00
1725381095.328;198;40.00;39352.00
1725381095.377;187;40.00;40014.13
1725381095.427;138;40.00;42854.67
1725381095.477;140;40.00;42745.46
1725381095.527;140;40.00;42745.46
1725381095.577;140;40.00;42745.46
1725381095.627;140;40.00;42745.46
1725381095.677;85;40.00;45982.27
1725381095.727;111;40.00;44468.27
1725381095.777;235;40.00;37194.67
1725381095.828;217;40.00;38231.20
1725381095.877;217;40.00;38231.20
1725381095.928;217;40.00;38231.20
1725381095.978;217;40.00;38231.20
1725381096.028;141;40.00;42718.67
1725381096.078;122;40.00;43794.13
1725381096.128;114;40.00;44299.73
1725381096.329;267;40.00;35304.54
1725381096.379;115;40.00;44221.00
1725381096.429;242;40.00;36778.13
1725381096.479;242;40.00;36778.13
1725381096.529;242;40.00;36778.13
1725381096.579;242;40.00;36778.13
1725381096.629;190;40.00;39807.60
1725381096.679;256;40.00;35966.40
1725381096.737;256;40.00;35966.40
1725381096.782;267;40.00;35309.87
1725381096.832;267;40.00;35309.87
1725381096.881;267;40.00;35309.87
1725381096.931;117;40.00;44087.33
1725381096.982;186;40.00;40057.33
1725381097.032;221;40.00;37990.60
1725381097.083;116;40.00;44155.20
1725381097.132;116;40.00;44155.20
1725381097.182;116;40.00;44155.20
1725381097.232;242;40.00;36780.80
1725381097.283;118;40.00;44048.67
1725381097.333;118;40.00;44026.93
1725381097.384;110;40.00;44513.00
1725381097.434;110;40.00;44513.00
1725381097.483;110;40.00;44513.00
1725381097.534;175;40.00;40712.80
1725381097.835;260;40.00;35736.40
1725381097.885;210;40.00;38656.93
1725381097.935;210;40.00;38656.93
1725381097.985;210;40.00;38656.93
1725381098.034;210;40.00;38656.93
1725381098.085;238;40.00;36996.40
1725381098.134;108;40.00;44622.00
1725381098.185;269;40.00;35209.20
1725381098.491;221;40.00;38004.13
1725381098.542;261;40.00;35695.60
1725381098.591;221;40.00;37996.93
1725381098.642;221;40.00;37996.93
1725381098.692;221;40.00;37996.93
1725381098.742;199;40.00;39325.87
1725381098.792;97;40.00;45289.60
1725381098.843;123;40.00;43738.54
1725381098.893;108;40.00;44621.20
1725381098.944;108;40.00;44621.20
1725381098.995;108;40.00;44621.20
1725381099.044;144;40.00;42555.87
1725381099.094;134;40.00;43135.46
1725381099.146;221;40.00;37989.87
1725381099.196;108;40.00;44619.40
1725381099.246;108;40.00;44619.40
1725381099.296;108;40.00;44619.40
1725381099.346;108;40.00;44619.40
1725381099.396;108;40.00;44619.40
1725381099.446;194;40.00;39592.46
1725381099.547;164;40.00;41368.00
1725381099.597;164;40.00;41368.00
1725381099.648;164;40.00;41368.00
1725381099.698;164;40.00;41368.00
1725381099.748;233;40.00;37289.73
1725381099.797;219;40.00;38109.07
1725381099.848;125;40.00;43654.00
1725381099.897;125;40.00;43654.00
1725381099.947;125;40.00;43654.00
1725381099.997;125;40.00;43654.00
1725381100.047;124;40.00;43727.60
1725381100.097;245;40.00;36610.13
1725381100.148;245;40.00;36610.13
1725381100.197;245;40.00;36610.13
1725381100.247;245;40.00;36610.13
1725381100.297;261;40.00;35680.80
1725381100.348;135;40.00;43028.27
1725381100.397;240;40.00;36926.87
1725381100.447;119;40.00;44002.93
1725381100.498;119;40.00;44002.93
1725381100.548;119;40.00;44002.93
1725381100.597;119;40.00;44002.93
1725381100.647;137;40.00;42950.40
1725381100.698;123;40.00;43732.40
1725381100.747;91;40.00;45660.54
1725381100.798;91;40.00;45660.54
1725381100.847;91;40.00;45660.54
1725381100.898;91;40.00;45660.54
1725381100.947;197;40.00;39398.13
1725381100.998;117;40.00;44113.07
1725381101.098;108;40.00;44636.80
1725381101.147;108;40.00;44636.80
1725381101.198;108;40.00;44636.80
1725381101.247;168;40.00;41128.13
1725381101.297;209;40.00;38690.54
1725381101.347;114;40.00;44262.67
1725381101.397;113;40.00;44332.27
1725381101.448;113;40.00;44332.27
1725381101.498;113;40.00;44332.27
1725381101.547;182;40.00;40319.46
1725381101.599;132;40.00;43219.46
1725381101.649;182;40.00;40322.93
1725381101.699;182;40.00;40322.93
1725381101.750;182;40.00;40322.93
1725381101.799;182;40.00;40322.93
1725381101.850;183;40.00;40252.27
1725381101.899;203;40.00;39097.73
1725381101.950;137;40.00;42921.60
1725381102.000;137;40.00;42921.60
1725381102.050;137;40.00;42921.60
1725381102.099;137;40.00;42921.60
1725381102.149;103;40.00;44910.67
1725381102.199;126;40.00;43557.33
1725381102.300;218;40.00;38204.54
1725381102.350;218;40.00;38204.54
1725381102.400;218;40.00;38204.54
1725381102.449;164;40.00;41339.73
1725381102.499;109;40.00;44582.13
1725381102.549;187;40.00;39999.07
1725381102.600;142;40.00;42648.73
1725381102.649;142;40.00;42648.73
1725381102.699;142;40.00;42648.73
1725381102.750;142;40.00;42648.73
1725381102.800;142;40.00;42645.40
1725381102.851;143;40.00;42591.60
1725381102.901;137;40.00;42937.33
1725381102.950;123;40.00;43768.00
1725381221.258;500;26.19;35369.87
1725381221.308;500;27.65;37623.20
1725381221.357;500;26.78;36287.73
1725381221.407;500;26.78;36287.73
1725381221.457;500;26.78;36287.73
1725381221.507;500;26.78;36287.73
1725381221.607;500;26.17;35336.80
1725381221.657;500;30.97;42730.27
1725381221.708;500;31.60;43706.40
1725381221.758;500;31.60;43706.40
1725381221.808;500;31.60;43706.40
1725381221.858;500;26.23;35438.67
1725381221.909;500;28.32;38656.13
1725381221.959;500;32.52;45118.93
1725381222.010;500;32.52;45118.93
1725381222.059;500;32.52;45118.93
1725381222.109;500;32.52;45118.93
1725381222.159;500;26.52;35886.13
1725381222.209;500;27.72;37732.27
1725381222.259;500;26.25;35463.20
1725381222.310;500;26.25;35463.20
1725381222.360;500;26.25;35463.20
1725381222.411;500;26.25;35463.20
1725381222.461;500;30.90;42629.33
1725381222.511;500;30.38;41833.73
1725381222.561;500;30.38;41833.73
1725381222.611;500;30.38;41833.73
1725381222.661;500;30.38;41833.73
1725381222.711;500;27.53;37430.54
1725381222.762;500;32.42;44975.73
1725381222.812;500;31.00;42777.07
1725381222.862;500;30.00;41236.60
1725381222.912;500;27.42;37267.46
1725381222.963;500;27.42;37267.46
1725381223.014;500;27.42;37267.46
1725381223.064;500;27.42;37267.46
1725381223.114;500;26.57;35955.67
1725381223.164;500;30.77;42426.67
1725381223.214;500;30.91;42641.80
1725381223.264;500;29.57;40578.40
1725381223.314;500;29.57;40578.40
1725381223.365;500;29.57;40578.40
1725381223.414;500;29.57;40578.40
1725381223.464;500;31.35;43325.07
1725381223.515;500;31.64;43772.40
1725381223.565;500;32.57;45200.00
1725381223.614;500;32.57;45200.00
1725381223.664;500;32.57;45200.00
1725381223.714;500;32.57;45200.00
1725381223.764;500;28.24;38528.33
1725381223.814;500;31.60;43705.00
1725381223.865;500;32.12;44511.33
1725381223.915;500;30.03;41291.93
1725381223.965;500;30.03;41291.93
1725381224.016;500;30.03;41291.93
1725381224.065;500;31.61;43714.93
1725381224.116;500;32.60;45241.33
1725381224.166;500;31.13;42984.33
1725381224.216;500;31.30;43245.54
1725381224.266;500;31.30;43245.54
1725381224.317;500;31.30;43245.54
1725381224.367;500;30.67;42273.93
1725381224.416;500;31.30;43238.67
1725381224.467;500;32.04;44380.00
1725381224.567;500;30.26;41649.67
1725381224.617;500;30.26;41649.67
1725381224.668;500;30.26;41649.67
1725381224.718;500;30.26;41649.67
1725381224.769;500;28.08;38285.20
1725381224.869;500;31.12;42962.80
1725381224.919;500;31.12;42962.80
1725381224.969;500;31.12;42962.80
1725381225.019;500;31.12;42962.80
1725381225.070;500;27.73;37751.73
1725381225.120;500;27.38;37203.33
1725381225.170;500;31.31;43259.13
1725381225.219;500;32.96;45804.27
1725381225.270;500;32.96;45804.27
1725381225.320;500;32.96;45804.27
1725381225.370;500;29.54;40532.33
1725381225.421;500;31.35;43318.13
1725381225.470;500;31.68;43824.27
1725381225.521;500;30.94;42693.33
1725381225.570;500;30.94;42693.33
1725381225.621;500;30.94;42693.33
1725381225.670;500;29.57;40572.54
1725381225.720;500;31.32;43278.67
1725381225.770;500;32.22;44654.27
1725381225.820;500;32.22;44654.27
1725381225.870;500;32.22;44654.27
1725381225.921;500;32.22;44654.27
1725381225.971;500;28.31;38631.60
1725381226.020;500;29.45;40397.60
1725381226.070;500;31.47;43506.93
1725381226.121;500;31.13;42983.33
1725381226.172;500;31.13;42983.33
1725381226.222;500;31.13;42983.33
1725381226.272;500;29.54;40539.33
1725381226.378;500;30.83;42527.46
1725381226.426;500;27.67;37659.20
1725381226.476;500;31.09;42915.87
1725381226.526;500;31.09;42915.87
1725381226.576;500;31.09;42915.87
1725381226.627;500;31.04;42851.13
1725381226.677;500;31.87;44128.27
1725381226.728;500;29.78;40905.87
1725381226.778;500;26.08;35203.07
1725381226.827;500;26.08;35203.07
1725381226.878;500;26.08;35203.07
1725381226.929;500;26.08;35203.07
1725381227.028;500;31.07;42895.33
1725381227.079;500;26.09;35213.46
1725381227.129;500;26.09;35213.46
1725381227.179;500;26.09;35213.46
1725381227.230;500;28.04;38224.67
1725381227.279;500;32.14;44532.27
1725381227.330;500;31.80;44012.54
1725381227.380;500;31.63;43760.46
1725381227.431;500;31.63;43760.46
1725381227.480;500;31.63;43760.46
1725381227.532;500;31.63;43760.46
1725381227.581;500;31.07;42894.27
1725381227.631;500;26.29;35521.07
1725381227.681;500;32.03;44368.33
1725381227.732;500;32.03;44368.33
1725381227.781;500;32.03;44368.33
1725381227.832;500;32.03;44368.33
1725381227.882;500;29.40;40321.60
1725381227.931;500;31.19;43081.46
1725381227.982;500;31.14;42990.27
1725381228.032;500;31.14;42990.27
1725381228.081;500;31.14;42990.27
1725381228.131;500;31.20;43096.00
1725381228.231;500;29.16;39942.80
1725381228.282;500;31.06;42868.20
1725381228.332;500;31.06;42868.20
1725381228.382;500;31.06;42868.20
1725381228.434;500;31.06;42868.20
1725381228.484;500;27.34;37142.13
1725381228.534;500;27.78;37827.73
1725381228.584;500;31.37;43346.80
1725381228.635;500;31.37;43346.80
1725381228.685;500;31.37;43346.80
1725381228.734;500;31.37;43346.80
1725381228.786;500;28.12;38346.40
1725381228.837;500;30.94;42684.27
1725381228.887;500;29.90;41093.73
1725381228.937;500;29.90;41093.73
1725381228.987;500;29.90;41093.73
1725381229.037;500;29.90;41093.73
1725381229.086;500;31.67;43816.80
1725381229.138;500;30.23;41590.13
1725381229.388;500;31.37;43348.60
1725381229.438;500;28.21;38476.80
1725381229.488;500;27.19;36907.60
1725381229.538;500;27.19;36907.60
1725381229.588;500;27.19;36907.60
1725381229.638;500;27.11;36794.54
1725381229.688;500;29.53;40511.46
1725381229.738;500;30.99;42762.67
1725381229.789;500;28.78;39362.73
1725381247.944;500;28.07;38271.87
1725381247.994;500;28.07;38271.87
1725381248.044;500;28.07;38271.87
1725381248.094;500;28.07;38271.87
1725381248.194;500;26.30;35543.73
1725381248.244;500;30.68;42282.67
1725381248.294;500;26.77;36258.40
1725381248.345;500;29.86;41029.20
1725381248.394;500;29.86;41029.20
1725381248.444;500;29.86;41029.20
1725381248.494;500;28.14;38374.67
1725381248.544;500;30.54;42075.73
1725381248.594;500;30.86;42571.46
1725381248.644;500;30.86;42571.46
1725381248.695;500;30.86;42571.46
1725381248.745;500;30.86;42571.46
1725381248.795;500;32.19;44608.80
1725381248.846;500;31.15;43009.87
1725381248.896;500;26.53;35888.40
1725381248.946;500;26.53;35888.40
1725381248.996;500;26.53;35888.40
1725381249.046;500;26.53;35888.40
1725381249.146;500;31.59;43695.73
1725381249.196;500;31.35;43325.07
1725381249.247;500;29.96;41178.93
1725381249.296;500;29.96;41178.93
1725381249.346;500;29.96;41178.93
1725381249.396;500;31.60;43709.46
1725381249.446;500;31.39;43377.87
1725381249.497;500;31.89;44151.46
1725381249.546;500;30.37;41816.20
1725381249.596;500;29.90;41082.33
1725381249.646;500;29.90;41082.33
1725381249.697;500;29.90;41082.33
1725381249.747;500;31.88;44139.87
1725381249.797;500;27.19;36919.33
1725381249.847;500;31.19;43072.80
1725381249.897;500;32.40;44941.33
1725381249.947;500;30.66;42265.67
1725381249.997;500;30.66;42265.67
1725381250.048;500;30.66;42265.67
1725381250.097;500;30.84;42528.40
1725381250.147;500;30.00;41234.54
1725381250.197;500;27.05;36692.27
1725381250.247;500;31.75;43940.40
1725381250.297;500;31.75;43940.40
1725381250.348;500;31.75;43940.40
1725381250.398;500;31.75;43940.40
1725381250.449;500;31.75;43940.40
1725381250.498;500;28.35;38698.93
1725381250.549;500;31.62;43732.67
1725381250.599;500;27.69;37678.67
1725381250.649;500;31.18;43060.07
1725381250.699;500;31.18;43060.07
1725381250.749;500;31.18;43060.07
1725381250.798;500;31.94;44223.40
1725381250.849;500;28.90;39549.46
1725381250.899;500;26.76;36253.60
1725381250.949;500;32.46;45028.27
1725381250.998;500;32.46;45028.27
1725381251.049;500;32.46;45028.27
1725381251.099;500;31.35;43318.27
1725381251.149;500;31.10;42934.00
1725381251.200;500;28.97;39648.67
1725381251.250;500;31.13;42986.13
1725381251.300;500;31.13;42986.13
1725381251.350;500;31.13;42986.13
1725381251.401;500;31.13;42986.13
1725381251.451;500;31.11;42956.00
1725381251.502;500;27.36;37177.46
1725381251.551;500;32.05;44392.54
1725381251.601;500;32.05;44392.54
1725381251.651;500;32.05;44392.54
1725381251.702;500;32.05;44392.54
1725381251.753;500;32.05;44392.54
1725381251.802;500;31.45;43481.73
1725381251.852;500;31.78;43982.40
1725381251.903;500;29.18;39985.60
1725381251.954;500;30.38;41819.73
1725381252.004;500;30.38;41819.73
1725381252.054;500;30.38;41819.73
1725381252.103;500;31.99;44303.73
1725381252.153;500;31.30;43236.87
1725381252.204;500;29.02;39726.00
1725381252.255;500;27.01;36629.73
1725381252.304;500;27.01;36629.73
1725381252.353;500;27.01;36629.73
1725381252.404;500;29.64;40682.60
1725381252.453;500;32.53;45142.67
1725381252.503;500;30.75;42390.40
1725381252.553;500;32.50;45098.13
1725381252.605;500;32.50;45098.13
1725381252.654;500;32.50;45098.13
1725381252.704;500;31.32;43273.33
1725381252.754;500;31.69;43838.27
1725381252.806;500;27.53;37432.40
1725381252.856;500;27.53;37432.40
1725381252.906;500;27.53;37432.40
1725381252.956;500;27.53;37432.40
1725381253.006;500;30.42;41896.00
1725381253.056;500;32.19;44610.93
1725381253.106;500;26.10;35237.67
1725381253.156;500;26.10;35237.67
1725381253.206;500;26.10;35237.67
1725381253.256;500;26.10;35237.67
1725381253.306;500;26.70;36161.60
1725381253.356;500;32.56;45186.93
1725381253.406;500;32.54;45153.07
1725381253.456;500;32.54;45153.07
1725381253.506;500;32.54;45153.07
1725381253.556;500;31.70;43856.93
1725381253.606;500;30.57;42120.54
1725381253.657;500;26.36;35636.27
1725381253.706;500;30.99;42760.40
1725381253.757;500;31.34;43312.54
1725381253.807;500;31.34;43312.54
1725381253.857;500;31.34;43312.54
1725381253.907;500;31.59;43692.54
1725381253.957;500;31.02;42807.73
1725381254.057;500;31.54;43616.00
1725381254.107;500;31.54;43616.00
1725381254.157;500;31.54;43616.00
1725381254.207;500;32.97;45818.27
1725381254.257;500;29.37;40271.33
1725381254.307;500;29.85;41012.00
1725381254.357;500;29.85;41012.00
1725381254.407;500;29.85;41012.00
1725381254.457;500;29.85;41012.00
1725381254.507;500;31.16;43021.93
1725381254.558;500;31.16;43029.00
1725381254.607;500;31.16;43029.00
1725381254.657;500;31.16;43029.00
1725381254.707;500;31.16;43029.00
1725381254.758;500;31.16;43029.00
1725381254.808;500;30.15;41476.46
1725381254.858;500;26.53;35902.54
1725381254.909;500;31.17;43049.93
1725381254.958;500;31.17;43049.93
1725381255.009;500;31.17;43049.93
1725381255.058;500;31.17;43049.93
1725381255.108;500;27.37;37196.27
1725381255.159;500;28.76;39337.33
1725381255.209;500;32.14;44540.00
1725381255.260;500;32.13;44530.13
1725381255.310;500;32.13;44530.13
1725381255.360;500;32.13;44530.13
1725381255.410;500;27.83;37905.60
1725381255.460;500;27.12;36797.87
1725381255.510;500;31.17;43048.40
1725381255.560;500;26.58;35968.54
1725381255.610;500;26.58;35968.54
1725381255.660;500;26.58;35968.54
1725381255.710;500;30.03;41290.67
1725381255.761;500;31.85;44095.46
1725381255.811;500;30.89;42607.07
1725381255.861;500;27.73;37742.93
1725381255.910;500;29.74;40845.20
1725381255.962;500;29.74;40845.20
1725381256.012;500;29.74;40845.20
1725381256.062;500;30.29;41682.27
1725381256.162;500;27.66;37635.20
1725381256.212;500;26.84;36368.40
1725381256.261;500;26.84;36368.40
1725381256.313;500;26.84;36368.40
1725381256.364;500;26.84;36368.40
1725381256.414;500;33.55;46715.93
1725381256.464;500;27.95;38085.07
1725381274.970;500;26.62;36030.54
1725381275.020;500;26.62;36030.54
1725381275.071;500;26.62;36030.54
1725381275.121;500;26.30;35537.20
1725381275.170;500;27.53;37432.87
1725381275.222;500;27.27;37039.73
1725381275.271;500;30.92;42656.40
1725381275.321;500;30.92;42656.40
1725381275.371;500;30.92;42656.40
1725381275.422;500;30.92;42656.40
1725381275.472;500;30.50;42011.27
1725381275.522;500;32.62;45278.46
1725381275.572;500;27.17;36886.07
1725381275.621;500;28.21;38478.40
1725381275.672;500;28.21;38478.40
1725381275.723;500;28.21;38478.40
1725381275.772;500;28.21;38478.40
1725381275.822;500;27.04;36679.27
1725381275.872;500;26.54;35908.67
1725381275.972;500;31.08;42905.33
1725381276.022;500;31.08;42905.33
1725381276.072;500;31.08;42905.33
1725381276.123;500;31.08;42905.33
1725381276.173;500;31.08;42905.33
1725381276.224;500;32.19;44615.20
1725381276.274;500;31.20;43096.80
1725381276.324;500;28.45;38850.67
1725381276.376;500;33.13;46059.46
1725381276.426;500;33.13;46059.46
1725381276.475;500;33.13;46059.46
1725381276.526;500;33.13;46059.46
1725381276.576;500;31.67;43818.67
1725381276.626;500;30.74;42388.46
1725381276.676;500;32.34;44842.33
1725381276.726;500;31.83;44054.80
1725381276.776;500;27.98;38132.20
1725381276.827;500;27.98;38132.20
1725381276.877;500;27.98;38132.20
1725381276.926;500;29.41;40335.46
1725381276.976;500;27.83;37903.07
1725381277.026;500;31.57;43666.46
1725381277.076;500;27.77;37800.00
1725381277.126;500;27.77;37800.00
1725381277.176;500;27.77;37800.00
1725381277.227;500;27.77;37800.00
1725381277.276;500;31.95;44246.67
1725381277.327;500;31.55;43634.40
1725381277.427;500;30.12;41427.20
1725381277.477;500;30.12;41427.20
1725381277.528;500;30.12;41427.20
1725381277.577;500;30.12;41427.20
1725381277.727;500;31.79;44003.40
1725381277.777;500;32.15;44553.73
1725381277.828;500;32.15;44553.73
1725381277.877;500;32.15;44553.73
1725381277.928;500;32.29;44773.60
1725381277.977;500;27.84;37921.07
1725381278.028;500;28.47;38876.93
1725381278.078;500;26.71;36176.27
1725381278.128;500;26.71;36176.27
1725381278.178;500;26.71;36176.27
1725381278.228;500;29.51;40493.27
1725381278.277;500;28.48;38907.46
1725381278.328;500;28.65;39163.46
1725381278.377;500;31.74;43914.93
1725381278.427;500;31.74;43914.93
1725381278.478;500;31.74;43914.93
1725381278.527;500;30.87;42588.07
1725381278.577;500;29.78;40905.46
1725381278.628;500;28.54;38986.60
1725381278.678;500;31.08;42905.07
1725381278.728;500;31.08;42905.07
1725381278.778;500;31.08;42905.07
1725381278.828;500;31.65;43781.87
1725381278.878;500;29.28;40124.93
1725381278.929;500;26.90;36468.54
1725381278.978;500;31.13;42976.67
1725381279.029;500;31.13;42976.67
1725381279.078;500;31.13;42976.67
1725381279.129;500;26.12;35265.33
1725381279.178;500;28.23;38510.67
1725381279.229;500;30.15;41471.46
1725381279.279;500;31.05;42858.00
1725381279.329;500;31.05;42858.00
1725381279.379;500;31.05;42858.00
1725381279.530;500;26.45;35775.60
1725381279.580;500;30.54;42068.27
1725381279.630;500;30.54;42068.27
1725381279.679;500;30.54;42068.27
1725381279.730;500;26.21;35403.73
1725381279.780;500;29.98;41211.87
1725381279.835;500;29.98;41211.87
1725381279.880;500;29.98;41211.87
1725381279.931;500;29.98;41211.87
1725381279.980;500;29.98;41211.87
1725381280.031;500;30.93;42681.33
1725381280.081;500;26.51;35862.60
1725381280.331;500;30.14;41457.20
1725381280.381;500;29.27;40121.60
1725381280.432;500;27.67;37658.27
1725381280.482;500;29.41;40331.67
1725381280.532;500;29.41;40331.67
1725381280.582;500;29.41;40331.67
1725381280.633;500;29.39;40309.33
1725381280.683;500;31.40;43400.00
1725381280.733;500;31.23;43131.93
1725381280.783;500;30.77;42433.60
1725381280.833;500;30.77;42433.60
1725381280.883;500;30.77;42433.60
1725381280.933;500;31.47;43501.60
1725381280.991;500;32.37;44895.20
1725381281.037;500;31.03;42828.27
1725381281.088;500;30.70;42319.60
1725381281.138;500;30.70;42319.60
1725381281.188;500;30.70;42319.60
1725381281.238;500;31.17;43042.67
1725381281.288;500;29.42;40342.93
1725381281.338;500;29.90;41093.33
1725381281.387;500;29.90;41093.33
1725381281.438;500;29.90;41093.33
1725381281.489;500;29.90;41093.33
1725381281.539;500;32.17;44588.54
1725381281.589;500;27.60;37546.54
1725381281.690;500;27.28;37045.60
1725381281.739;500;27.28;37045.60
1725381281.790;500;27.28;37045.60
1725381281.840;500;28.05;38244.80
1725381281.890;500;30.50;42004.27
1725381281.941;500;30.21;41564.27
1725381281.990;500;31.94;44228.27
1725381282.040;500;31.94;44228.27
1725381282.090;500;31.94;44228.27
1725381282.140;500;28.93;39589.27
1725381282.191;500;32.01;44336.27
1725381282.241;500;31.10;42930.27
1725381282.291;500;30.49;42000.07
1725381282.341;500;30.49;42000.07
1725381282.391;500;30.49;42000.07
1725381282.441;500;32.59;45235.67
1725381282.592;500;30.16;41480.67
1725381282.642;500;30.16;41480.67
1725381282.691;500;30.16;41480.67
1725381282.743;500;27.14;36841.60
1725381282.793;500;28.56;39029.67
1725381282.843;500;30.90;42626.27
1725381282.894;500;30.95;42701.33
1725381282.944;500;30.95;42701.33
1725381282.993;500;30.95;42701.33
1725381283.043;500;27.82;37881.27
1725381283.095;500;31.18;43062.93
1725381283.144;500;31.31;43253.07
1725381283.194;500;31.53;43602.67
1725381283.244;500;31.53;43602.67
1725381283.295;500;31.53;43602.67
1725381283.345;500;30.62;42192.73
1725381283.395;500;28.02;38187.60
1725381283.446;500;32.69;45379.20
1725381714.469;242;20.00;36770.13
1725381714.519;234;20.00;37236.93
1725381714.569;234;20.00;37236.93
1725381714.619;234;20.00;37236.93
1725381714.669;234;20.00;37236.93
1725381714.719;248;20.00;36429.07
1725381714.770;99;20.00;45147.20
1725381714.819;141;20.00;42676.27
1725381714.870;141;20.00;42676.27
1725381714.920;141;20.00;42676.27
1725381714.970;141;20.00;42676.27
1725381715.021;260;20.00;35709.73
1725381715.071;122;20.00;43824.27
1725381715.121;127;20.00;43508.40
1725381715.171;127;20.00;43508.40
1725381715.222;127;20.00;43508.40
1725381715.272;132;20.00;43248.80
1725381715.322;243;20.00;36736.00
1725381715.372;171;20.00;40950.67
1725381715.422;126;20.00;43575.33
1725381715.472;126;20.00;43575.33
1725381715.522;126;20.00;43575.33
1725381715.572;126;20.00;43575.33
1725381715.674;127;20.00;43530.80
1725381715.723;228;20.00;37612.73
1725381715.774;257;20.00;35929.13
1725381715.823;257;20.00;35929.13
1725381715.873;257;20.00;35929.13
1725381715.925;130;20.00;43353.07
1725381715.974;239;20.00;36951.20
1725381716.025;242;20.00;36801.33
1725381716.075;242;20.00;36801.33
1725381716.125;242;20.00;36801.33
1725381716.175;242;20.00;36801.33
1725381716.225;182;20.00;40291.60
1725381716.275;118;20.00;44022.40
1725381716.325;133;20.00;43183.60
1725381716.375;101;20.00;45043.07
1725381716.425;101;20.00;45043.07
1725381716.475;101;20.00;45043.07
1725381716.525;188;20.00;39958.40
1725381716.574;107;20.00;44714.93
1725381716.626;146;20.00;42387.20
1725381716.676;150;20.00;42161.60
1725381716.726;150;20.00;42161.60
1725381716.776;150;20.00;42161.60
1725381716.876;133;20.00;43180.80
1725381716.926;215;20.00;38373.54
1725381716.976;138;20.00;42900.27
1725381717.026;138;20.00;42900.27
1725381717.076;138;20.00;42900.27
1725381717.127;138;20.00;42900.27
1725381717.227;139;20.00;42832.80
1725381717.327;267;20.00;35291.73
1725381717.377;267;20.00;35291.73
1725381717.427;267;20.00;35291.73
1725381717.527;117;20.00;44082.93
1725381717.577;241;20.00;36844.27
1725381717.628;124;20.00;43720.00
1725381717.677;124;20.00;43720.00
1725381717.727;124;20.00;43720.00
1725381717.778;151;20.00;42118.93
1725381717.828;96;20.00;45322.40
1725381717.878;133;20.00;43149.60
1725381717.929;240;20.00;36908.27
1725381717.978;240;20.00;36908.27
1725381718.028;240;20.00;36908.27
1725381718.080;240;20.00;36908.27
1725381718.129;112;20.00;44412.80
1725381718.180;161;20.00;41525.73
1725381718.230;232;20.00;37394.27
1725381718.280;232;20.00;37394.27
1725381718.330;232;20.00;37394.27
1725381718.380;232;20.00;37394.27
1725381718.431;147;20.00;42361.67
1725381718.481;251;20.00;36235.60
1725381718.530;135;20.00;43034.40
1725381718.581;135;20.00;43034.40
1725381718.630;135;20.00;43034.40
1725381718.680;135;20.00;43034.40
1725381718.730;198;20.00;39355.20
1725381718.781;116;20.00;44142.80
1725381718.831;121;20.00;43898.80
1725381718.882;121;20.00;43898.80
1725381718.931;121;20.00;43898.80
1725381718.982;121;20.00;43898.80
1725381719.031;223;20.00;37922.00
1725381719.082;105;20.00;44803.46
1725381719.133;83;20.00;46082.54
1725381719.183;74;20.00;46603.80
1725381719.233;74;20.00;46603.80
1725381719.283;74;20.00;46603.80
1725381719.333;74;20.00;46603.80
1725381719.383;218;20.00;38189.80
1725381719.433;107;20.00;44723.73
1725381719.483;131;20.00;43292.13
1725381719.533;242;20.00;36755.13
1725381719.584;242;20.00;36755.13
1725381719.634;242;20.00;36755.13
1725381719.684;242;20.00;36755.13
1725381719.734;252;20.00;36200.40
1725381719.783;233;20.00;37319.46
1725381719.834;256;20.00;35952.67
1725381719.884;256;20.00;35952.67
1725381719.933;256;20.00;35952.67
1725381719.984;187;20.00;39999.87
1725381720.034;204;20.00;39008.13
1725381720.085;165;20.00;41306.13
1725381720.134;267;20.00;35330.13
1725381720.184;267;20.00;35330.13
1725381720.235;267;20.00;35330.13
1725381720.286;267;20.00;35330.13
1725381720.336;158;20.00;41693.20
1725381720.386;143;20.00;42609.07
1725381720.436;140;20.00;42774.00
1725381720.486;128;20.00;43463.46
1725381720.536;128;20.00;43463.46
1725381720.586;128;20.00;43463.46
1725381720.636;128;20.00;43463.46
1725381720.686;128;20.00;43463.46
1725381720.736;149;20.00;42256.93
1725381720.786;96;20.00;45351.46
1725381720.836;188;20.00;39929.07
1725381720.886;188;20.00;39929.07
1725381720.936;188;20.00;39929.07
1725381720.986;188;20.00;39929.07
1725381721.036;116;20.00;44168.00
1725381721.086;126;20.00;43572.93
1725381721.136;248;20.00;36460.13
1725381721.186;226;20.00;37701.87
1725381721.236;198;20.00;39374.20
1725381721.286;198;20.00;39374.20
1725381721.336;198;20.00;39374.20
1725381721.386;92;20.00;45588.80
1725381721.436;207;20.00;38846.93
1725381721.486;116;20.00;44183.73
1725381721.536;110;20.00;44538.54
1725381721.586;110;20.00;44538.54
1725381721.636;110;20.00;44538.54
1725381721.687;103;20.00;44913.07
1725381721.736;117;20.00;44119.07
1725381721.787;137;20.00;42951.87
1725381721.837;160;20.00;41612.54
1725381721.887;160;20.00;41612.54
1725381721.937;160;20.00;41612.54
1725381721.987;154;20.00;41938.40
1725381722.036;241;20.00;36843.87
1725381722.086;111;20.00;44456.27
1725381722.136;133;20.00;43186.67
1725381722.188;133;20.00;43186.67
1725381722.237;133;20.00;43186.67
1725381722.288;111;20.00;44484.27
1725381722.338;156;20.00;41806.60
1725381722.388;93;20.00;45494.13
1725381722.438;194;20.00;39592.00
1725381722.489;194;20.00;39592.00
1725381722.538;194;20.00;39592.00
1725381722.588;114;20.00;44261.13
1725381722.639;81;20.00;46226.93
1725381722.688;120;20.00;43956.00
1725381722.739;241;20.00;36826.67
1725381722.788;241;20.00;36826.67
1725381722.838;241;20.00;36826.67
1725381722.889;250;20.00;36303.20
1725381722.938;82;20.00;46135.46
1725381722.989;155;20.00;41896.93
1725381741.383;228;20.00;37620.27
1725381741.433;228;20.00;37620.27
1725381741.483;228;20.00;37620.27
1725381741.533;223;20.00;37898.07
1725381741.633;112;20.00;44381.60
1725381741.684;118;20.00;44034.13
1725381741.735;118;20.00;44034.13
1725381741.785;118;20.00;44034.13
1725381741.835;133;20.00;43159.13
1725381741.884;104;20.00;44870.13
1725381741.934;146;20.00;42430.93
1725381741.986;146;20.00;42430.93
1725381742.036;146;20.00;42430.93
1725381742.086;146;20.00;42430.93
1725381742.136;214;20.00;38420.00
1725381742.186;117;20.00;44114.80
1725381742.236;130;20.00;43350.00
1725381742.286;130;20.00;43350.00
1725381742.336;130;20.00;43350.00
1725381742.386;130;20.00;43350.00
1725381742.436;124;20.00;43703.20
1725381742.486;136;20.00;42994.93
1725381742.537;162;20.00;41476.00
1725381742.586;100;20.00;45084.27
1725381742.637;100;20.00;45084.27
1725381742.686;100;20.00;45084.27
1725381742.737;230;20.00;37510.46
1725381742.786;208;20.00;38800.67
1725381742.836;158;20.00;41679.46
1725381742.887;155;20.00;41871.73
1725381742.936;155;20.00;41871.73
1725381742.986;155;20.00;41871.73
1725381743.036;142;20.00;42662.67
1725381743.086;214;20.00;38439.33
1725381743.136;246;20.00;36535.33
1725381743.186;132;20.00;43221.33
1725381743.236;132;20.00;43221.33
1725381743.286;132;20.00;43221.33
1725381743.342;101;20.00;45029.87
1725381743.389;258;20.00;35840.67
1725381743.439;117;20.00;44136.54
1725381743.489;152;20.00;42052.80
1725381743.538;152;20.00;42052.80
1725381743.589;152;20.00;42052.80
1725381743.638;113;20.00;44324.54
1725381743.689;248;20.00;36440.40
1725381743.889;231;20.00;37416.93
1725381743.939;235;20.00;37177.07
1725381743.990;185;20.00;40146.40
1725381744.039;217;20.00;38225.67
1725381744.089;217;20.00;38225.67
1725381744.141;217;20.00;38225.67
1725381744.191;217;20.00;38225.67
1725381744.240;112;20.00;44394.67
1725381744.291;131;20.00;43294.67
1725381744.342;95;20.00;45424.40
1725381744.391;108;20.00;44648.93
1725381744.442;108;20.00;44648.93
1725381744.491;108;20.00;44648.93
1725381744.542;121;20.00;43849.00
1725381744.592;161;20.00;41537.07
1725381744.642;82;20.00;46134.67
1725381744.692;246;20.00;36546.80
1725381744.742;246;20.00;36546.80
1725381744.792;246;20.00;36546.80
1725381744.843;197;20.00;39392.00
1725381744.893;187;20.00;40000.80
1725381744.943;100;20.00;45116.33
1725381744.993;154;20.00;41952.00
1725381745.043;154;20.00;41952.00
1725381745.093;154;20.00;41952.00
1725381745.143;115;20.00;44209.73
1725381745.193;171;20.00;40936.27
1725381745.243;110;20.00;44517.60
1725381745.293;108;20.00;44637.27
1725381745.344;108;20.00;44637.27
1725381745.393;108;20.00;44637.27
1725381745.445;109;20.00;44601.60
1725381745.494;135;20.00;43035.33
1725381745.544;211;20.00;38594.80
1725381745.594;211;20.00;38594.80
1725381745.644;211;20.00;38594.80
1725381745.694;211;20.00;38594.80
1725381745.744;70;20.00;46844.54
1725381745.795;223;20.00;37904.27
1725381745.845;223;20.00;37904.27
1725381745.895;124;20.00;43693.07
1725381745.945;124;20.00;43693.07
1725381745.994;124;20.00;43693.07
1725381746.046;233;20.00;37327.46
1725381746.096;127;20.00;43543.00
1725381746.146;120;20.00;43958.33
1725381746.196;120;20.00;43958.33
1725381746.246;120;20.00;43958.33
1725381746.296;120;20.00;43958.33
1725381746.346;236;20.00;37133.46
1725381746.396;253;20.00;36114.27
1725381746.446;139;20.00;42807.20
1725381746.496;89;20.00;45744.13
1725381746.546;89;20.00;45744.13
1725381746.596;89;20.00;45744.13
1725381746.646;148;20.00;42315.20
1725381746.696;126;20.00;43553.73
1725381746.746;205;20.00;38978.40
1725381746.796;205;20.00;38978.40
1725381746.846;205;20.00;38978.40
1725381746.896;205;20.00;38978.40
1725381746.946;137;20.00;42964.54
1725381746.996;120;20.00;43908.00
1725381747.046;251;20.00;36261.13
1725381747.096;251;20.00;36261.13
1725381747.146;251;20.00;36261.13
1725381747.196;251;20.00;36261.13
1725381747.246;253;20.00;36127.46
1725381747.296;126;20.00;43568.13
1725381747.346;248;20.00;36417.46
1725381747.396;221;20.00;37998.67
1725381747.446;221;20.00;37998.67
1725381747.496;221;20.00;37998.67
1725381747.547;120;20.00;43922.67
1725381747.597;139;20.00;42841.60
1725381747.647;262;20.00;35591.13
1725381747.696;167;20.00;41160.67
1725381747.747;167;20.00;41160.67
1725381747.797;167;20.00;41160.67
1725381747.846;212;20.00;38546.13
1725381747.896;120;20.00;43948.00
1725381747.947;127;20.00;43546.07
1725381747.997;114;20.00;44267.67
1725381748.047;114;20.00;44267.67
1725381748.096;114;20.00;44267.67
1725381748.146;127;20.00;43526.13
1725381748.196;110;20.00;44532.40
1725381748.247;98;20.00;45229.20
1725381748.297;98;20.00;45229.20
1725381748.347;98;20.00;45229.20
1725381748.397;98;20.00;45229.20
1725381748.447;122;20.00;43818.67
1725381748.497;119;20.00;43995.33
1725381748.558;95;20.00;45370.93
1725381748.604;158;20.00;41677.60
1725381748.655;158;20.00;41677.60
1725381748.704;158;20.00;41677.60
1725381748.756;161;20.00;41505.60
1725381748.806;115;20.00;44249.73
1725381748.856;115;20.00;44252.40
1725381748.906;136;20.00;42981.87
1725381748.956;136;20.00;42981.87
1725381749.006;136;20.00;42981.87
1725381749.056;100;20.00;45097.27
1725381749.106;103;20.00;44939.33
1725381749.156;126;20.00;43598.13
1725381749.206;217;20.00;38248.27
1725381749.256;217;20.00;38248.27
1725381749.306;217;20.00;38248.27
1725381749.356;99;20.00;45156.80
1725381749.406;239;20.00;36983.46
1725381749.456;166;20.00;41230.87
1725381768.342;251;20.00;36226.40
1725381768.541;187;20.00;39990.40
1725381768.592;165;20.00;41307.20
1725381768.641;205;20.00;38963.73
1725381768.693;248;20.00;36433.07
1725381768.743;248;20.00;36433.07
1725381768.793;248;20.00;36433.07
1725381768.842;248;20.00;36404.80
1725381768.892;135;20.00;43074.13
1725381768.942;134;20.00;43100.80
1725381768.993;134;20.00;43094.40
1725381769.043;134;20.00;43094.40
1725381769.093;134;20.00;43094.40
1725381769.143;134;20.00;43094.40
1725381769.193;136;20.00;42985.00
1725381769.243;131;20.00;43268.54
1725381769.294;154;20.00;41919.46
1725381769.344;154;20.00;41919.46
1725381769.394;154;20.00;41919.46
1725381769.444;154;20.00;41919.46
1725381769.494;127;20.00;43540.54
1725381769.544;146;20.00;42383.46
1725381769.595;261;20.00;35688.67
1725381769.645;261;20.00;35688.67
1725381769.694;261;20.00;35688.67
1725381769.745;261;20.00;35688.67
1725381769.795;236;20.00;37119.13
1725381769.846;143;20.00;42589.73
1725381769.896;169;20.00;41047.73
1725381769.946;169;20.00;41047.73
1725381769.996;169;20.00;41047.73
1725381770.046;162;20.00;41490.40
1725381770.096;119;20.00;43988.80
1725381770.146;102;20.00;44990.67
1725381770.196;177;20.00;40597.73
1725381770.246;177;20.00;40597.73
1725381770.296;177;20.00;40597.73
1725381770.346;167;20.00;41206.93
1725381770.396;104;20.00;44879.33
1725381770.447;146;20.00;42401.93
1725381770.496;146;20.00;42401.93
1725381770.547;146;20.00;42401.93
1725381770.597;146;20.00;42401.93
1725381770.646;146;20.00;42401.93
1725381770.746;200;20.00;39236.54
1725381770.796;138;20.00;42867.54
1725381770.846;138;20.00;42867.54
1725381770.896;138;20.00;42867.54
1725381770.947;138;20.00;42867.54
1725381770.996;264;20.00;35522.40
1725381771.046;132;20.00;43246.33
1725381771.096;239;20.00;36973.00
1725381771.146;239;20.00;36973.00
1725381771.196;239;20.00;36973.00
1725381771.246;239;20.00;36973.00
1725381771.304;218;20.00;38208.54
1725381771.349;218;20.00;38208.54
1725381771.399;205;20.00;38958.67
1725381771.449;166;20.00;41228.33
1725381771.499;166;20.00;41228.33
1725381771.549;166;20.00;41228.33
1725381771.601;166;20.00;41228.33
1725381771.651;70;20.00;46874.54
1725381771.701;230;20.00;37476.27
1725381771.751;196;20.00;39468.27
1725381771.801;194;20.00;39582.67
1725381771.850;194;20.00;39582.67
1725381771.902;194;20.00;39582.67
1725381771.952;216;20.00;38312.54
1725381772.001;146;20.00;42386.13
1725381772.051;194;20.00;39577.73
1725381772.101;254;20.00;36094.67
1725381772.151;254;20.00;36094.67
1725381772.202;254;20.00;36094.67
1725381772.252;152;20.00;42052.67
1725381772.302;121;20.00;43895.46
1725381772.352;153;20.00;41976.13
1725381772.402;122;20.00;43813.87
1725381772.451;122;20.00;43813.87
1725381772.501;122;20.00;43813.87
1725381772.551;127;20.00;43538.33
1725381772.610;87;20.00;45889.46
1725381772.656;195;20.00;39566.13
1725381772.706;161;20.00;41549.73
1725381772.757;161;20.00;41549.73
1725381772.807;161;20.00;41549.73
1725381772.856;161;20.00;41549.73
1725381772.906;132;20.00;43239.13
1725381772.957;109;20.00;44551.46
1725381773.006;243;20.00;36737.73
1725381773.056;243;20.00;36737.73
1725381773.106;243;20.00;36737.73
1725381773.157;243;20.00;36737.73
1725381773.207;242;20.00;36764.00
1725381773.257;267;20.00;35327.07
1725381773.307;146;20.00;42382.13
1725381773.357;132;20.00;43213.07
1725381773.407;132;20.00;43213.07
1725381773.458;132;20.00;43213.07
1725381773.507;132;20.00;43213.07
1725381773.557;168;20.00;41119.20
1725381773.607;117;20.00;44135.20
1725381773.658;127;20.00;43527.60
1725381773.707;201;20.00;39160.54
1725381773.758;201;20.00;39160.54
1725381773.807;201;20.00;39160.54
1725381773.858;199;20.00;39321.60
1725381773.907;109;20.00;44592.54
1725381773.958;90;20.00;45703.73
1725381774.007;205;20.00;38955.13
1725381774.057;199;20.00;39325.93
1725381774.108;199;20.00;39325.93
1725381774.158;199;20.00;39325.93
1725381774.208;184;20.00;40191.73
1725381774.258;130;20.00;43350.33
1725381774.408;173;20.00;40834.27
1725381774.458;173;20.00;40834.27
1725381774.509;173;20.00;40834.27
1725381774.609;245;20.00;36594.80
1725381774.659;155;20.00;41860.67
1725381774.709;148;20.00;42294.40
1725381774.759;148;20.00;42294.40
1725381774.809;148;20.00;42294.40
1725381774.859;212;20.00;38523.13
1725381774.959;228;20.00;37626.54
1725381775.009;228;20.00;37626.54
1725381775.059;228;20.00;37626.54
1725381775.109;228;20.00;37626.54
1725381775.159;151;20.00;42136.54
1725381775.209;225;20.00;37752.27
1725381775.259;228;20.00;37629.60
1725381775.309;115;20.00;44248.27
1725381775.359;115;20.00;44248.27
1725381775.409;115;20.00;44248.27
1725381775.459;202;20.00;39139.46
1725381775.509;186;20.00;40072.93
1725381775.559;173;20.00;40802.13
1725381775.609;77;20.00;46442.07
1725381775.660;77;20.00;46442.07
1725381775.711;77;20.00;46442.07
1725381775.760;93;20.00;45536.54
1725381775.810;238;20.00;37018.00
1725381775.860;232;20.00;37346.80
1725381775.910;177;20.00;40567.46
1725381775.960;177;20.00;40567.46
1725381776.010;177;20.00;40567.46
1725381776.061;253;20.00;36131.73
1725381776.111;179;20.00;40493.73
1725381776.161;208;20.00;38777.40
1725381776.212;154;20.00;41931.40
1725381776.262;154;20.00;41931.40
1725381776.312;154;20.00;41931.40
1725381776.362;160;20.00;41592.40
1725381776.412;96;20.00;45362.13
