UnixTimestamp;Microseconds;MilliAmpere;BaseValue
1725464973.061;500;1.00
1725464973.109;500;1.00
1725464973.159;500;1.00
1725464973.209;500;1.00
1725464973.259;500;1.00
1725464973.310;500;1.00
1725464973.361;500;1.00
1725464973.410;500;1.00
1725464973.461;500;1.00
1725464973.510;500;1.00
1725464973.561;500;1.00
1725464973.611;500;1.00
1725464973.661;500;1.00
1725464973.711;500;1.00
1725464973.762;500;1.00
1725464973.812;500;1.00
1725464973.862;500;1.00
1725464973.912;500;1.00
1725464973.963;500;1.00
1725464978.418;1;40.00
1725464978.468;1;40.00
1725464978.520;1;40.00
1725464978.569;1;40.00
1725464978.621;1;40.00
1725464978.671;1;40.00
1725464978.721;1;40.00
1725464978.771;1;40.00
1725464978.820;1;40.00
1725464978.871;1;40.00
1725464978.921;1;40.00
1725464978.971;1;40.00
1725464979.021;1;40.00
1725464979.071;1;40.00
1725464979.120;1;40.00
1725464979.171;1;40.00
1725464979.220;1;40.00
1725464979.271;1;40.00
1725464998.408;500;13.05;34061.87
1725464998.459;500;13.05;34061.87
1725464998.509;500;13.05;34061.87
1725464998.558;500;16.63;38078.07
1725464998.608;500;16.61;38054.60
1725464998.659;500;16.61;38054.60
1725464998.709;500;16.61;38054.60
1725464998.759;500;16.52;37958.54
1725464998.808;500;16.52;37958.54
1725464998.859;500;16.52;37958.54
1725464998.910;500;16.78;38255.46
1725464998.959;500;14.92;36165.73
1725464999.010;500;14.92;36165.73
1725464999.060;500;14.77;35994.40
1725464999.110;500;16.70;38163.13
1725464999.160;500;16.93;38418.73
1725464999.210;500;16.93;38418.73
1725464999.260;500;16.37;37789.46
1725464999.310;500;16.79;38264.20
1725464999.360;500;17.00;38497.00
1725464999.412;500;17.00;38497.00
1725464999.460;500;16.36;37776.67
1725464999.510;500;14.50;35684.80
1725464999.560;500;16.71;38171.80
1725464999.610;500;16.71;38171.80
1725464999.660;500;16.72;38177.13
1725464999.710;500;16.72;38178.73
1725464999.760;500;14.85;36086.20
1725464999.810;500;14.85;36086.20
1725464999.860;500;14.61;35815.60
1725464999.910;500;16.84;38312.00
1725464999.961;500;16.84;38312.00
1725465000.012;500;16.84;38312.00
1725465000.061;500;16.69;38147.13
1725465000.112;500;16.69;38147.13
1725465000.161;500;16.69;38147.13
1725465000.211;500;16.70;38160.46
1725465000.261;500;16.95;38437.67
1725465000.311;500;16.95;38437.67
1725465000.362;500;16.95;38437.67
1725465000.412;500;15.13;36392.00
1725465000.461;500;14.63;35829.54
1725465000.512;500;14.63;35829.54
1725465000.562;500;14.63;35829.54
1725465000.612;500;15.21;36481.54
1725465000.662;500;16.75;38216.27
1725465000.711;500;16.75;38216.27
1725465000.762;500;16.75;38216.27
1725465000.812;500;16.56;38000.00
1725465000.862;500;16.68;38138.93
1725465000.912;500;16.68;38138.93
1725465000.962;500;16.79;38265.33
1725465001.012;500;15.17;36441.67
1725465001.062;500;15.17;36441.67
1725465001.112;500;15.17;36441.67
1725465001.162;500;14.98;36233.20
1725465001.212;500;14.98;36233.20
1725465001.262;500;14.98;36233.20
1725465001.312;500;16.72;38181.27
1725465001.363;500;16.75;38221.07
1725465001.413;500;16.75;38221.07
1725465001.464;500;16.75;38221.07
1725465001.513;500;14.81;36033.93
1725465001.565;500;15.39;36688.00
1725465001.615;500;15.39;36688.00
1725465001.665;500;15.39;36688.00
1725465001.714;500;16.75;38217.87
1725465001.765;500;16.81;38281.33
1725465001.815;500;16.81;38281.33
1725465001.865;500;16.81;38281.33
1725465001.915;500;16.47;37902.67
1725465001.965;500;16.67;38124.80
1725465002.015;500;16.67;38124.80
1725465002.064;500;16.60;38049.60
1725465002.115;500;16.84;38312.60
1725465002.164;500;16.59;38033.33
1725465002.215;500;16.59;38033.33
1725465002.264;500;14.91;36146.33
1725465002.315;500;14.60;35804.93
1725465002.364;500;15.76;37103.13
1725465002.416;500;15.76;37103.13
1725465002.465;500;16.83;38303.20
1725465002.516;500;13.52;34584.87
1725465002.565;500;13.52;34584.87
1725465002.615;500;13.52;34584.87
1725465002.665;500;17.00;38495.33
1725465002.716;500;16.82;38291.54
1725465002.766;500;16.82;38291.54
1725465002.817;500;16.82;38291.54
1725465002.866;500;16.35;37762.13
1725465002.916;500;16.39;37812.54
1725465002.966;500;16.39;37812.54
1725465003.017;500;16.39;37812.54
1725465003.068;500;14.83;36064.40
1725465003.118;500;16.82;38292.27
1725465003.167;500;16.82;38292.27
1725465003.218;500;16.82;38292.27
1725465003.268;500;16.62;38071.20
1725465015.172;500;13.60;34680.00
1725465015.222;500;13.78;34878.87
1725465015.273;500;13.78;34878.87
1725465015.322;500;13.78;34878.87
1725465015.373;500;16.77;38243.13
1725465015.423;500;16.93;38418.27
1725465015.473;500;16.93;38418.27
1725465015.523;500;16.93;38418.27
1725465015.573;500;16.61;38053.67
1725465015.623;500;16.82;38290.40
1725465015.673;500;16.91;38391.07
1725465015.723;500;16.91;38391.07
1725465015.774;500;16.91;38391.07
1725465015.824;500;16.80;38272.80
1725465015.874;500;14.62;35822.27
1725465015.924;500;14.62;35822.27
1725465015.974;500;14.62;35822.27
1725465016.024;500;15.52;36832.60
1725465016.074;500;15.01;36263.20
1725465016.124;500;15.01;36263.20
1725465016.174;500;15.01;36263.20
1725465016.224;500;15.89;37250.20
1725465016.274;500;15.27;36550.67
1725465016.324;500;15.27;36550.67
1725465016.374;500;15.27;36550.67
1725465016.424;500;16.74;38205.33
1725465016.474;500;16.48;37907.60
1725465016.525;500;16.48;37907.60
1725465016.574;500;16.48;37907.60
1725465016.624;500;16.27;37672.33
1725465016.675;500;16.48;37915.20
1725465016.725;500;16.48;37915.20
1725465016.774;500;16.48;37915.20
1725465016.825;500;13.85;34954.13
1725465016.874;500;16.60;38046.40
1725465016.925;500;16.60;38046.40
1725465016.974;500;16.60;38046.40
1725465017.025;500;16.79;38261.87
1725465017.075;500;13.55;34622.00
1725465017.125;500;13.55;34622.00
1725465017.175;500;14.21;35366.20
1725465017.224;500;13.71;34804.54
1725465017.274;500;13.71;34804.54
1725465017.324;500;13.71;34804.54
1725465017.374;500;16.33;37749.87
1725465017.425;500;14.98;36224.00
1725465017.475;500;14.64;35849.00
1725465017.524;500;14.64;35849.00
1725465017.574;500;14.64;35850.54
1725465017.625;500;15.60;36919.67
1725465017.675;500;14.69;35903.87
1725465017.724;500;14.69;35903.87
1725465017.775;500;14.67;35877.73
1725465017.824;500;14.67;35877.73
1725465017.875;500;16.81;38281.33
1725465017.925;500;16.81;38281.33
1725465017.975;500;16.81;38281.33
1725465018.026;500;16.84;38314.93
1725465018.075;500;15.82;37166.60
1725465018.126;500;15.82;37166.60
1725465018.175;500;15.82;37166.60
1725465018.225;500;16.47;37906.13
1725465018.276;500;16.88;38361.60
1725465018.325;500;16.88;38361.60
1725465018.375;500;16.88;38361.60
1725465018.425;500;16.65;38108.54
1725465018.476;500;16.90;38386.20
1725465018.526;500;16.90;38386.20
1725465018.576;500;16.90;38386.20
1725465018.626;500;16.26;37664.46
1725465018.676;500;14.21;35364.20
1725465018.727;500;14.21;35364.20
1725465018.777;500;14.21;35364.20
1725465018.827;500;16.86;38342.46
1725465018.876;500;16.67;38129.73
1725465018.928;500;16.67;38129.73
1725465018.978;500;16.67;38129.73
1725465019.028;500;16.64;38097.87
1725465019.077;500;16.84;38320.00
1725465019.128;500;16.84;38320.00
1725465019.178;500;16.84;38320.00
1725465019.229;500;13.23;34267.46
1725465019.278;500;16.75;38220.60
1725465019.329;500;16.75;38220.60
1725465019.378;500;16.75;38220.60
1725465019.429;500;16.74;38202.27
1725465019.479;500;15.59;36916.87
1725465019.529;500;15.59;36916.87
1725465019.579;500;15.66;36991.07
1725465019.629;500;16.62;38066.13
1725465019.679;500;16.62;38066.13
1725465019.730;500;16.62;38066.13
1725465019.780;500;15.45;36759.40
1725465019.831;500;13.92;35038.07
1725465019.881;500;13.92;35038.07
1725465019.932;500;13.92;35038.07
1725465019.981;500;15.60;36923.27
1725465020.031;500;14.81;36031.87
1725465020.081;500;14.81;36031.87
1725465020.133;500;14.81;36031.87
1725465020.182;500;15.25;36526.87
1725465020.233;500;14.03;35166.07
1725465020.282;500;15.02;36275.87
1725465020.333;500;15.02;36275.87
1725465020.383;500;16.37;37794.27
1725465020.433;500;14.96;36205.67
1725465032.688;500;13.67;34761.46
1725465032.739;500;13.67;34761.46
1725465032.789;500;13.67;34761.46
1725465032.839;500;13.64;34723.20
1725465032.889;500;16.75;38212.27
1725465032.939;500;16.75;38212.27
1725465032.989;500;16.75;38212.27
1725465033.039;500;15.58;36907.33
1725465033.089;500;15.82;37165.93
1725465033.139;500;15.82;37165.93
1725465033.190;500;16.15;37547.46
1725465033.240;500;14.95;36196.87
1725465033.290;500;15.51;36828.60
1725465033.340;500;15.51;36828.60
1725465033.390;500;16.88;38364.33
1725465033.440;500;16.56;38003.00
1725465033.490;500;16.56;38003.00
1725465033.540;500;16.56;38003.00
1725465033.590;500;16.97;38458.80
1725465033.640;500;16.71;38174.07
1725465033.690;500;16.71;38174.07
1725465033.740;500;16.71;38174.07
1725465033.791;500;16.94;38428.80
1725465033.840;500;16.75;38216.20
1725465033.891;500;16.75;38216.20
1725465033.941;500;16.75;38216.20
1725465033.991;500;15.09;36356.27
1725465034.041;500;14.92;36157.60
1725465034.090;500;15.09;36346.00
1725465034.140;500;15.09;36346.00
1725465034.192;500;16.84;38314.80
1725465034.241;500;13.65;34739.33
1725465034.292;500;13.65;34739.33
1725465034.342;500;13.65;34739.33
1725465034.392;500;15.95;37315.93
1725465034.441;500;15.37;36663.80
1725465034.493;500;15.37;36663.80
1725465034.543;500;16.33;37744.93
1725465034.593;500;15.87;37228.33
1725465034.643;500;15.87;37228.33
1725465034.693;500;14.33;35502.33
1725465034.743;500;14.97;36220.46
1725465034.792;500;14.97;36220.46
1725465034.843;500;14.97;36220.46
1725465034.893;500;16.89;38374.07
1725465034.942;500;16.80;38275.20
1725465034.995;500;16.80;38275.20
1725465035.044;500;16.80;38275.20
1725465035.094;500;15.82;37173.67
1725465035.145;500;14.99;36238.27
1725465035.194;500;14.99;36238.27
1725465035.244;500;14.99;36238.27
1725465035.295;500;15.09;36349.07
1725465035.345;500;16.48;37910.20
1725465035.394;500;16.48;37910.20
1725465035.445;500;16.48;37910.20
1725465035.495;500;16.64;38095.54
1725465035.545;500;16.97;38467.27
1725465035.595;500;16.97;38467.27
1725465035.646;500;16.97;38467.27
1725465035.696;500;15.17;36445.93
1725465035.745;500;15.84;37197.13
1725465035.795;500;15.84;37197.13
1725465035.846;500;15.84;37197.13
1725465035.896;500;16.98;38471.87
1725465035.946;500;15.43;36733.87
1725465035.996;500;15.43;36733.87
1725465036.045;500;16.80;38270.87
1725465036.095;500;16.87;38356.33
1725465036.145;500;16.87;38356.33
1725465036.195;500;15.41;36711.27
1725465036.247;500;16.44;37867.73
1725465036.297;500;16.44;37867.73
1725465036.347;500;16.44;37867.73
1725465036.396;500;16.80;38267.27
1725465036.447;500;16.30;37708.27
1725465036.496;500;16.30;37708.27
1725465036.546;500;16.30;37708.27
1725465036.596;500;16.03;37412.67
1725465036.646;500;16.03;37408.33
1725465036.697;500;16.03;37408.33
1725465036.747;500;16.85;38328.80
1725465036.797;500;16.85;38328.80
1725465036.847;500;16.85;38328.80
1725465036.897;500;15.10;36364.46
1725465036.947;500;15.71;37048.00
1725465036.997;500;15.71;37048.00
1725465037.047;500;15.71;37048.00
1725465037.097;500;15.13;36398.20
1725465037.148;500;15.13;36398.20
1725465037.198;500;15.13;36398.20
1725465037.248;500;16.86;38334.13
1725465037.297;500;16.87;38349.60
1725465037.348;500;16.87;38349.60
1725465037.398;500;16.87;38349.60
1725465037.448;500;16.79;38256.00
1725465210.171;41;40.00;34003.87
1725465210.221;40;40.00;34125.87
1725465210.270;40;40.00;34125.87
1725465210.322;42;40.00;33844.80
1725465210.371;39;40.00;34365.93
1725465210.421;39;40.00;34365.93
1725465210.472;39;40.00;34365.93
1725465210.521;38;40.00;34611.07
1725465210.571;38;40.00;34611.07
1725465210.623;38;40.00;34611.07
1725465210.674;33;40.00;35447.27
1725465210.724;25;40.00;36908.93
1725465210.774;25;40.00;36908.93
1725465210.824;33;40.00;35396.33
1725465210.875;18;40.00;38134.00
1725465210.925;18;40.00;38134.00
1725465210.974;18;40.00;38134.00
1725465211.024;26;40.00;36773.46
1725465211.075;26;40.00;36773.46
1725465211.124;26;40.00;36773.46
1725465211.174;23;40.00;37218.33
1725465211.224;26;40.00;36703.27
1725465211.275;26;40.00;36703.27
1725465211.325;26;40.00;36703.27
1725465211.374;28;40.00;36322.80
1725465211.424;25;40.00;36840.27
1725465211.475;25;40.00;36840.27
1725465211.525;24;40.00;37128.33
1725465211.575;29;40.00;36271.00
1725465211.625;29;40.00;36271.00
1725465211.675;29;40.00;36271.00
1725465211.726;23;40.00;37315.60
1725465211.775;23;40.00;37315.60
1725465211.826;23;40.00;37315.60
1725465211.876;30;40.00;35942.20
1725465211.925;18;40.00;38239.33
1725465211.976;18;40.00;38239.33
1725465212.025;18;40.00;38239.33
1725465212.076;28;40.00;36325.13
1725465212.129;25;40.00;37001.00
1725465212.176;25;40.00;37001.00
1725465212.226;34;40.00;35313.80
1725465212.276;22;40.00;37461.73
1725465212.327;22;40.00;37461.73
1725465212.376;22;40.00;37461.73
1725465212.426;20;40.00;37864.13
1725465212.476;17;40.00;38404.33
1725465212.526;17;40.00;38404.33
1725465212.577;17;40.00;38404.33
1725465212.626;30;40.00;35987.27
1725465212.676;30;40.00;35987.27
1725465212.726;30;40.00;35987.27
1725465212.777;22;40.00;37451.33
1725465212.827;23;40.00;37353.60
1725465212.877;23;40.00;37353.60
1725465212.928;17;40.00;38497.00
1725465212.979;21;40.00;37602.93
1725465213.028;21;40.00;37602.93
1725465213.079;21;40.00;37602.93
1725465213.128;25;40.00;36952.20
1725465213.178;24;40.00;37069.46
1725465213.229;24;40.00;37069.46
1725465213.280;24;40.00;37069.46
1725465213.330;19;40.00;37970.54
1725465213.380;17;40.00;38497.00
1725465213.430;17;40.00;38497.00
1725465213.479;17;40.00;38497.00
1725465213.529;34;40.00;35193.40
1725465213.579;34;40.00;35193.40
1725465213.629;34;40.00;35193.40
1725465213.680;32;40.00;35698.07
1725465213.729;17;40.00;38497.00
1725465213.780;17;40.00;38497.00
1725465213.831;17;40.00;38497.00
1725465213.881;18;40.00;38289.73
1725465213.931;18;40.00;38289.73
1725465213.981;18;40.00;38289.73
1725465214.032;33;40.00;35534.46
1725465214.082;29;40.00;36116.46
1725465214.133;29;40.00;36116.46
1725465214.182;29;40.00;36116.46
1725465214.232;28;40.00;36419.13
1725465214.282;26;40.00;36814.80
1725465214.332;26;40.00;36814.80
1725465214.382;26;40.00;36814.80
1725465214.432;28;40.00;36293.46
1725465214.482;28;40.00;36325.54
1725465214.532;28;40.00;36325.54
1725465214.582;21;40.00;37692.20
1725465225.107;42;40.00;33855.87
1725465225.157;42;40.00;33855.87
1725465225.207;42;40.00;33855.87
1725465225.257;18;40.00;38304.00
1725465225.307;17;40.00;38386.00
1725465225.357;17;40.00;38386.00
1725465225.406;40;40.00;34111.93
1725465225.457;29;40.00;36154.33
1725465225.508;29;40.00;36154.33
1725465225.557;29;40.00;36154.33
1725465225.608;21;40.00;37700.80
1725465225.658;21;40.00;37700.80
1725465225.708;21;40.00;37700.80
1725465225.758;19;40.00;38066.20
1725465225.808;19;40.00;37984.40
1725465225.859;19;40.00;37984.40
1725465225.910;17;40.00;38315.60
1725465225.959;18;40.00;38221.73
1725465226.009;18;40.00;38221.73
1725465226.059;18;40.00;38221.73
1725465226.115;27;40.00;36628.13
1725465226.160;31;40.00;35741.00
1725465226.211;32;40.00;35649.40
1725465226.261;32;40.00;35649.40
1725465226.312;18;40.00;38215.20
1725465226.366;18;40.00;38161.80
1725465226.412;18;40.00;38161.80
1725465226.462;36;40.00;34943.46
1725465226.512;23;40.00;37269.13
1725465226.570;23;40.00;37269.13
1725465226.612;23;40.00;37269.13
1725465226.662;37;40.00;34790.67
1725465226.713;35;40.00;35101.87
1725465226.763;35;40.00;35101.87
1725465226.813;19;40.00;38051.13
1725465226.863;25;40.00;36883.80
1725465226.913;25;40.00;36883.80
1725465226.969;25;40.00;36883.80
1725465227.014;25;40.00;36883.80
1725465227.065;21;40.00;37706.46
1725465227.115;18;40.00;38222.13
1725465227.165;18;40.00;38222.13
1725465227.215;31;40.00;35734.20
1725465227.265;18;40.00;38146.00
1725465227.315;18;40.00;38146.00
1725465227.365;18;40.00;38146.00
1725465227.416;23;40.00;37259.46
1725465227.465;17;40.00;38462.13
1725465227.516;17;40.00;38462.13
1725465227.566;17;40.00;38462.13
1725465227.615;18;40.00;38162.20
1725465227.666;18;40.00;38162.20
1725465227.715;18;40.00;38162.20
1725465227.765;29;40.00;36152.40
1725465227.815;25;40.00;36963.33
1725465227.865;25;40.00;36963.33
1725465227.916;27;40.00;36623.07
1725465227.965;31;40.00;35800.60
1725465228.015;30;40.00;35982.67
1725465228.066;30;40.00;35982.67
1725465228.116;30;40.00;35990.80
1725465228.166;23;40.00;37228.93
1725465228.215;23;40.00;37228.93
1725465228.266;23;40.00;37228.93
1725465228.315;31;40.00;35862.13
1725465228.366;18;40.00;38245.87
1725465228.416;18;40.00;38245.87
1725465228.465;18;40.00;38245.87
1725465228.516;17;40.00;38493.20
1725465228.566;25;40.00;36879.73
1725465228.616;25;40.00;36879.73
1725465228.666;25;40.00;36879.73
1725465228.716;24;40.00;37159.87
1725465228.766;24;40.00;37159.87
1725465228.817;24;40.00;37159.87
1725465228.867;17;40.00;38497.00
1725465228.917;17;40.00;38497.00
1725465228.971;17;40.00;38497.00
1725465229.018;17;40.00;38497.00
1725465229.068;31;40.00;35840.33
1725465229.119;33;40.00;35429.93
1725465229.168;33;40.00;35429.93
1725465229.219;30;40.00;35992.67
1725465229.268;32;40.00;35698.20
1725465229.318;32;40.00;35698.20
1725465229.369;32;40.00;35698.20
1725465229.418;28;40.00;36407.73
1725465229.468;28;40.00;36407.73
1725465229.519;28;40.00;36407.73
1725465229.569;38;40.00;34574.13
1725465229.619;27;40.00;36592.00
1725465229.669;27;40.00;36592.00
1725465229.720;17;40.00;38413.67
1725465229.770;28;40.00;36386.67
1725465240.650;38;40.00;34573.46
1725465240.704;38;40.00;34564.54
1725465240.751;38;40.00;34564.54
1725465240.801;24;40.00;37026.00
1725465240.850;29;40.00;36103.87
1725465240.901;29;40.00;36103.87
1725465240.950;17;40.00;38497.00
1725465241.000;17;40.00;38497.00
1725465241.051;17;40.00;38497.00
1725465241.100;17;40.00;38497.00
1725465241.151;25;40.00;36919.60
1725465241.201;22;40.00;37405.67
1725465241.251;22;40.00;37405.67
1725465241.301;22;40.00;37447.87
1725465241.351;29;40.00;36120.54
1725465241.402;29;40.00;36120.54
1725465241.457;27;40.00;36558.67
1725465241.504;35;40.00;35004.80
1725465241.553;35;40.00;35004.80
1725465241.605;35;40.00;35004.80
1725465241.654;18;40.00;38246.33
1725465241.704;18;40.00;38246.33
1725465241.755;18;40.00;38246.33
1725465241.805;26;40.00;36675.60
1725465241.854;30;40.00;36073.07
1725465241.905;30;40.00;36073.07
1725465241.954;29;40.00;36274.27
1725465242.004;24;40.00;37113.20
1725465242.054;24;40.00;37113.20
1725465242.104;24;40.00;37113.20
1725465242.155;25;40.00;36920.54
1725465242.205;26;40.00;36787.27
1725465242.255;26;40.00;36787.27
1725465242.305;26;40.00;36787.27
1725465242.355;19;40.00;38037.87
1725465242.405;21;40.00;37671.33
1725465242.457;21;40.00;37671.33
1725465242.506;23;40.00;37263.20
1725465242.557;27;40.00;36510.07
1725465242.608;27;40.00;36510.07
1725465242.658;27;40.00;36510.07
1725465242.707;20;40.00;37840.00
1725465242.757;17;40.00;38497.00
1725465242.807;17;40.00;38497.00
1725465242.859;17;40.00;38497.00
1725465242.909;27;40.00;36532.07
1725465242.958;25;40.00;36849.80
1725465243.009;25;40.00;36849.80
1725465243.059;29;40.00;36117.33
1725465243.110;31;40.00;35853.33
1725465243.159;31;40.00;35853.33
1725465243.209;31;40.00;35853.33
1725465243.260;37;40.00;34740.00
1725465243.309;37;40.00;34740.00
1725465243.359;37;40.00;34740.00
1725465243.410;40;40.00;34096.93
1725465243.459;33;40.00;35381.07
1725465243.509;33;40.00;35381.07
1725465243.559;17;40.00;38494.27
1725465243.610;17;40.00;38494.27
1725465243.659;17;40.00;38494.27
1725465243.710;36;40.00;34937.07
1725465243.760;21;40.00;37690.33
1725465243.810;21;40.00;37690.33
1725465243.861;24;40.00;37127.67
1725465243.911;29;40.00;36161.80
1725465243.960;29;40.00;36161.80
1725465244.011;29;40.00;36161.80
1725465244.061;24;40.00;37075.93
1725465244.111;29;40.00;36099.33
1725465244.161;30;40.00;36010.27
1725465244.211;30;40.00;36010.27
1725465244.261;17;40.00;38384.07
1725465244.311;17;40.00;38497.00
1725465244.362;17;40.00;38497.00
1725465244.412;17;40.00;38497.00
1725465244.461;32;40.00;35585.67
1725465244.512;20;40.00;37835.13
1725465244.563;20;40.00;37835.13
1725465244.613;20;40.00;37835.13
1725465244.663;19;40.00;38018.93
1725465244.713;19;40.00;38018.93
1725465244.763;19;40.00;38018.93
1725465244.813;27;40.00;36524.40
1725465244.863;20;40.00;37797.33
1725465244.913;20;40.00;37797.33
1725465244.963;20;40.00;37797.33
1725465245.013;29;40.00;36189.00
1725465379.716;200;13.48;34544.00
1725465379.767;200;13.48;34544.00
1725465379.816;200;13.48;34544.00
1725465379.866;200;13.76;34852.80
1725465379.917;200;16.02;37399.46
1725465379.967;200;16.02;37399.46
1725465380.016;200;16.82;38290.27
1725465380.066;200;15.20;36473.20
1725465380.116;200;15.20;36473.20
1725465380.167;200;15.20;36473.20
1725465380.217;200;14.70;35918.27
1725465380.267;200;14.70;35918.27
1725465380.316;200;14.70;35918.27
1725465380.367;200;16.41;37837.54
1725465380.417;200;16.30;37712.33
1725465380.467;200;16.30;37712.33
1725465380.517;200;16.30;37712.33
1725465380.567;200;13.69;34775.33
1725465380.617;200;13.95;35067.73
1725465380.667;200;13.95;35067.73
1725465380.717;200;14.55;35744.27
1725465380.770;200;16.66;38111.93
1725465380.817;200;16.66;38111.93
1725465380.868;200;16.66;38111.93
1725465380.920;200;15.63;36954.73
1725465380.972;200;14.29;35449.20
1725465381.021;200;14.80;36023.60
1725465381.073;200;14.80;36023.60
1725465381.122;200;13.81;34913.07
1725465381.172;200;16.97;38463.07
1725465381.223;200;16.97;38463.07
1725465381.273;200;16.97;38463.07
1725465381.323;200;14.58;35776.60
1725465381.373;200;14.58;35776.60
1725465381.424;200;14.58;35776.60
1725465381.474;200;13.64;34720.07
1725465381.524;200;13.64;34720.07
1725465381.574;200;13.64;34720.07
1725465381.624;200;14.02;35154.93
1725465381.676;200;14.02;35154.93
1725465381.724;200;14.02;35154.93
1725465381.774;200;16.20;37593.13
1725465381.825;200;16.67;38121.67
1725465381.875;200;16.67;38121.67
1725465381.926;200;16.65;38103.54
1725465381.975;200;16.56;38000.87
1725465382.025;200;16.56;38000.87
1725465382.075;200;16.56;38000.87
1725465382.125;200;17.00;38497.00
1725465382.175;200;17.00;38497.00
1725465382.225;200;17.00;38497.00
1725465382.275;200;14.08;35221.67
1725465382.326;200;16.61;38054.73
1725465382.375;200;16.61;38054.73
1725465382.425;200;16.61;38054.73
1725465382.476;200;13.88;34986.80
1725465382.526;200;14.82;36044.27
1725465382.576;200;14.82;36044.27
1725465382.625;200;14.83;36055.07
1725465382.676;200;16.28;37690.80
1725465382.726;200;16.28;37690.80
1725465382.776;200;16.28;37690.80
1725465382.825;200;15.58;36901.00
1725465382.876;200;15.58;36901.00
1725465382.926;200;15.58;36901.00
1725465382.976;200;15.84;37199.00
1725465383.026;200;14.72;35934.87
1725465383.076;200;14.72;35934.87
1725465383.126;200;14.72;35934.87
1725465383.176;200;16.46;37894.67
1725465383.225;200;16.46;37886.33
1725465383.275;200;16.46;37886.33
1725465383.326;200;13.72;34817.27
1725465383.378;200;15.89;37254.46
1725465383.426;200;15.89;37254.46
1725465383.476;200;15.89;37254.46
1725465383.526;200;14.65;35858.73
1725465383.576;200;13.40;34454.54
1725465383.627;200;13.40;34454.54
1725465383.676;200;13.40;34454.54
1725465383.726;200;15.92;37286.20
1725465383.776;200;15.92;37286.20
1725465383.826;200;15.92;37286.20
1725465383.877;200;14.23;35384.00
1725465383.926;200;16.27;37681.00
1725465383.976;200;16.27;37681.00
1725465384.028;200;15.70;37040.07
1725465384.077;200;14.27;35429.87
1725465384.129;200;14.27;35429.87
1725465384.178;200;14.27;35429.87
1725465384.229;200;16.55;37996.27
1725465395.049;200;13.63;34715.20
1725465395.099;200;13.63;34715.20
1725465395.150;200;13.63;34715.20
1725465395.201;200;16.18;37572.87
1725465395.251;200;16.01;37390.20
1725465395.301;200;16.01;37390.20
1725465395.350;200;13.37;34414.67
1725465395.401;200;16.73;38190.54
1725465395.451;200;16.73;38190.54
1725465395.501;200;16.73;38190.54
1725465395.551;200;17.00;38497.00
1725465395.601;200;16.91;38393.46
1725465395.651;200;16.91;38393.46
1725465395.701;200;16.73;38195.07
1725465395.751;200;15.55;36872.80
1725465395.801;200;15.55;36872.80
1725465395.850;200;13.20;34232.27
1725465395.901;200;15.20;36470.80
1725465395.951;200;15.20;36470.80
1725465396.001;200;15.20;36470.80
1725465396.051;200;16.22;37621.87
1725465396.101;200;16.22;37621.87
1725465396.150;200;16.22;37621.87
1725465396.201;200;15.37;36663.46
1725465396.251;200;14.63;35835.07
1725465396.301;200;14.63;35835.07
1725465396.351;200;14.63;35835.07
1725465396.401;200;16.64;38096.33
1725465396.451;200;16.64;38096.33
1725465396.501;200;16.64;38096.33
1725465396.551;200;16.08;37459.33
1725465396.602;200;15.10;36366.27
1725465396.651;200;15.10;36366.27
1725465396.702;200;15.10;36366.27
1725465396.751;200;13.69;34777.33
1725465396.802;200;16.86;38335.20
1725465396.852;200;16.86;38335.20
1725465396.902;200;16.86;38335.20
1725465396.952;200;16.30;37714.80
1725465397.002;200;16.30;37714.80
1725465397.052;200;16.30;37714.80
1725465397.102;200;16.30;37714.80
1725465397.153;200;14.47;35659.20
1725465397.203;200;14.47;35659.20
1725465397.252;200;14.47;35659.20
1725465397.302;200;13.49;34549.54
1725465397.354;200;14.39;35562.20
1725465397.407;200;14.39;35562.20
1725465397.454;200;15.33;36622.13
1725465397.504;200;15.81;37157.40
1725465397.555;200;15.81;37157.40
1725465397.606;200;15.81;37157.40
1725465397.655;200;17.00;38497.00
1725465397.705;200;17.00;38497.00
1725465397.756;200;17.00;38497.00
1725465397.806;200;16.77;38235.27
1725465397.856;200;16.77;38235.27
1725465397.906;200;16.77;38235.27
1725465397.957;200;16.31;37724.00
1725465398.007;200;16.31;37724.00
1725465398.056;200;16.31;37724.00
1725465398.107;200;16.31;37724.00
1725465398.156;200;15.31;36601.67
1725465398.207;200;15.31;36601.67
1725465398.257;200;15.31;36601.67
1725465398.306;200;15.81;37158.07
1725465398.358;200;15.81;37158.07
1725465398.407;200;15.81;37158.07
1725465398.459;200;16.79;38259.00
1725465398.508;200;16.60;38046.73
1725465398.558;200;16.60;38046.73
1725465398.608;200;16.60;38046.73
1725465398.658;200;17.00;38497.00
1725465398.708;200;17.00;38497.00
1725465398.759;200;16.94;38433.20
1725465398.808;200;14.89;36131.54
1725465398.858;200;14.89;36131.54
1725465398.908;200;14.89;36131.54
1725465398.959;200;14.28;35440.93
1725465399.008;200;16.37;37793.33
1725465399.058;200;16.37;37793.33
1725465399.108;200;16.37;37793.33
1725465399.163;200;16.94;38430.27
1725465399.210;200;15.55;36866.67
1725465399.261;200;15.55;36866.67
1725465399.311;200;15.55;36866.67
1725465399.361;200;15.14;36404.60
1725465399.410;200;14.33;35500.80
1725465399.461;200;14.33;35500.80
1725465399.511;200;14.33;35500.80
1725465399.561;200;16.22;37622.87
1725465410.036;200;12.72;33693.73
1725465410.086;200;12.75;33725.60
1725465410.135;200;12.75;33725.60
1725465410.185;200;12.91;33906.67
1725465410.235;200;15.10;36364.54
1725465410.285;200;15.10;36364.54
1725465410.335;200;15.10;36364.54
1725465410.385;200;14.31;35477.80
1725465410.435;200;13.72;34815.80
1725465410.486;200;13.72;34815.80
1725465410.536;200;13.86;34964.80
1725465410.586;200;16.01;37388.73
1725465410.635;200;16.01;37388.73
1725465410.686;200;16.01;37388.73
1725465410.735;200;16.84;38316.40
1725465410.785;200;16.93;38423.07
1725465410.836;200;16.93;38423.07
1725465410.886;200;16.33;37749.07
1725465410.937;200;16.68;38142.93
1725465410.987;200;16.68;38142.93
1725465411.037;200;16.68;38142.93
1725465411.086;200;16.17;37566.67
1725465411.138;200;15.65;36976.07
1725465411.188;200;15.65;36976.07
1725465411.238;200;14.17;35315.07
1725465411.288;200;16.54;37981.60
1725465411.338;200;16.54;37981.60
1725465411.388;200;16.54;37981.60
1725465411.438;200;14.76;35981.00
1725465411.488;200;15.89;37245.73
1725465411.537;200;15.73;37070.00
1725465411.588;200;15.73;37070.00
1725465411.638;200;16.04;37414.54
1725465411.688;200;15.44;36740.87
1725465411.737;200;15.44;36740.87
1725465411.788;200;15.44;36740.87
1725465411.837;200;13.55;34619.07
1725465411.888;200;13.55;34619.07
1725465411.938;200;13.55;34619.07
1725465411.987;200;15.41;36715.33
1725465412.038;200;16.28;37684.40
1725465412.088;200;16.28;37684.40
1725465412.138;200;17.00;38497.00
1725465412.189;200;15.21;36485.73
1725465412.239;200;15.21;36485.73
1725465412.289;200;15.21;36485.73
1725465412.339;200;16.66;38120.67
1725465412.389;200;14.84;36072.27
1725465412.438;200;14.84;36072.27
1725465412.488;200;15.70;37037.87
1725465412.539;200;14.73;35942.54
1725465412.589;200;14.73;35942.54
1725465412.638;200;15.30;36582.33
1725465412.688;200;16.89;38371.07
1725465412.739;200;16.89;38371.07
1725465412.789;200;16.89;38371.07
1725465412.838;200;16.73;38192.40
1725465412.889;200;16.73;38192.40
1725465412.939;200;16.73;38192.40
1725465412.989;200;16.23;37633.87
1725465413.039;200;16.31;37719.80
1725465413.090;200;16.31;37719.80
1725465413.140;200;14.89;36123.40
1725465413.190;200;16.89;38371.07
1725465413.240;200;16.89;38371.07
1725465413.290;200;16.89;38371.07
1725465413.340;200;14.53;35722.67
1725465413.390;200;14.18;35329.07
1725465413.440;200;14.18;35329.07
1725465413.489;200;14.18;35329.07
1725465413.539;200;13.64;34718.27
1725465413.590;200;14.39;35562.67
1725465413.640;200;14.39;35562.67
1725465413.691;200;13.94;35065.00
1725465413.740;200;16.13;37520.46
1725465413.791;200;16.13;37520.46
1725465413.841;200;14.41;35583.20
1725465413.891;200;14.80;36026.80
1725465413.941;200;14.80;36026.80
1725465413.992;200;14.80;36026.80
1725465414.040;200;16.75;38214.00
1725465414.090;200;16.61;38058.13
1725465414.140;200;16.61;38058.13
1725465414.191;200;16.79;38258.73
1725465414.241;200;15.37;36666.33
1725465414.291;200;15.37;36666.33
1725465414.342;200;15.37;36666.33
1725465414.391;200;14.39;35561.20
1725465414.441;200;14.39;35561.20
1725465414.492;200;14.39;35561.20
1725465414.541;200;16.56;37997.67
1725465584.604;38;10.00;34471.33
1725465584.654;38;10.00;34471.33
1725465584.704;38;10.00;34471.33
1725465584.754;37;10.00;34716.07
1725465584.805;28;10.00;36406.27
1725465584.854;28;10.00;36406.27
1725465584.904;28;10.00;36406.27
1725465584.954;38;10.00;34529.87
1725465585.005;38;10.00;34529.87
1725465585.054;38;10.00;34529.87
1725465585.104;37;10.00;34785.87
1725465585.154;25;10.00;36998.13
1725465585.204;25;10.00;36998.13
1725465585.254;25;10.00;36998.13
1725465585.305;25;10.00;36998.13
1725465585.355;30;10.00;36009.33
1725465585.406;30;10.00;36009.33
1725465585.456;30;10.00;36009.33
1725465585.506;33;10.00;35409.87
1725465585.556;37;10.00;34679.20
1725465585.606;37;10.00;34679.20
1725465585.656;37;10.00;34679.20
1725465585.706;37;10.00;34710.54
1725465585.756;25;10.00;36999.33
1725465585.806;25;10.00;36999.33
1725465585.856;31;10.00;35777.27
1725465585.906;34;10.00;35294.93
1725465585.956;33;10.00;35455.46
1725465586.006;33;10.00;35455.46
1725465586.056;33;10.00;35455.46
1725465586.106;36;10.00;34940.60
1725465586.156;36;10.00;34904.00
1725465586.206;36;10.00;34904.00
1725465586.256;36;10.00;34904.00
1725465586.306;27;10.00;36514.13
1725465586.356;34;10.00;35341.46
1725465586.406;34;10.00;35341.46
1725465586.456;34;10.00;35341.46
1725465586.507;34;10.00;35341.46
1725465586.556;28;10.00;36351.80
1725465586.607;40;10.00;34118.13
1725465586.656;40;10.00;34118.13
1725465586.706;39;10.00;34261.46
1725465586.757;38;10.00;34547.20
1725465586.807;38;10.00;34547.20
1725465586.858;38;10.00;34547.20
1725465586.908;34;10.00;35270.60
1725465586.958;27;10.00;36584.40
1725465587.008;27;10.00;36584.40
1725465587.058;27;10.00;36584.40
1725465587.158;30;10.00;35947.60
1725465587.209;30;10.00;35947.60
1725465587.259;30;10.00;35947.60
1725465587.310;42;10.00;33699.73
1725465587.359;42;10.00;33820.80
1725465587.410;42;10.00;33820.80
1725465587.459;42;10.00;33820.80
1725465587.509;39;10.00;34296.27
1725465587.559;30;10.00;35976.27
1725465587.610;29;10.00;36155.40
1725465587.659;29;10.00;36155.40
1725465587.710;31;10.00;35895.87
1725465587.762;42;10.00;33806.27
1725465587.812;42;10.00;33806.27
1725465587.861;42;10.00;33806.27
1725465587.911;37;10.00;34799.46
1725465587.962;29;10.00;36196.60
1725465588.013;29;10.00;36196.60
1725465588.063;22;10.00;37487.87
1725465588.113;31;10.00;35898.27
1725465588.163;31;10.00;35898.27
1725465588.214;31;10.00;35898.27
1725465588.264;30;10.00;36071.13
1725465588.464;32;10.00;35597.93
1725465588.514;41;10.00;34058.93
1725465588.564;39;10.00;34360.67
1725465588.619;39;10.00;34360.67
1725465588.665;32;10.00;35563.33
1725465588.715;21;10.00;37604.27
1725465588.765;41;10.00;34052.54
1725465588.815;41;10.00;34052.54
1725465588.865;37;10.00;34706.73
1725465588.965;40;10.00;34212.00
1725465589.016;40;10.00;34212.00
1725465589.066;23;10.00;37268.80
1725465589.116;30;10.00;36073.87
1725465589.166;30;10.00;36073.87
1725465589.216;30;10.00;36073.87
1725465589.266;38;10.00;34516.67
1725465589.316;24;10.00;37156.07
1725465589.366;24;10.00;37156.07
1725465589.416;24;10.00;37156.07
1725465589.467;29;10.00;36141.87
1725465589.518;29;10.00;36141.87
1725465589.568;29;10.00;36141.87
1725465589.620;31;10.00;35882.87
1725465589.667;26;10.00;36830.80
1725465601.194;43;10.00;33634.87
1725465601.394;41;10.00;34006.40
1725465601.445;39;10.00;34270.13
1725465601.495;39;10.00;34270.13
1725465601.545;39;10.00;34270.13
1725465601.595;36;10.00;34952.13
1725465601.645;30;10.00;35980.54
1725465601.695;30;10.00;35980.54
1725465601.745;30;10.00;35980.54
1725465601.795;36;10.00;34905.67
1725465601.846;36;10.00;34905.67
1725465601.895;36;10.00;34905.67
1725465601.946;36;10.00;34905.67
1725465601.996;30;10.00;36060.40
1725465602.047;30;10.00;36060.40
1725465602.097;30;10.00;36060.40
1725465602.148;34;10.00;35328.33
1725465602.198;34;10.00;35328.33
1725465602.249;34;10.00;35328.33
1725465602.299;39;10.00;34250.13
1725465602.349;39;10.00;34250.13
1725465602.398;39;10.00;34250.13
1725465602.449;39;10.00;34250.13
1725465602.499;37;10.00;34646.20
1725465602.549;37;10.00;34757.07
1725465602.598;37;10.00;34757.07
1725465602.649;37;10.00;34757.07
1725465602.698;26;10.00;36670.00
1725465602.749;39;10.00;34400.13
1725465602.798;39;10.00;34400.13
1725465602.849;39;10.00;34400.13
1725465602.899;37;10.00;34788.80
1725465602.949;37;10.00;34763.60
1725465602.999;37;10.00;34763.60
1725465603.049;37;10.00;34763.60
1725465603.099;41;10.00;33960.40
1725465603.149;20;10.00;37786.80
1725465603.200;20;10.00;37786.80
1725465603.250;20;10.00;37786.80
1725465603.299;33;10.00;35528.93
1725465603.350;30;10.00;35987.07
1725465603.400;37;10.00;34662.13
1725465603.450;37;10.00;34662.13
1725465603.499;35;10.00;35019.27
1725465603.550;42;10.00;33866.07
1725465603.599;38;10.00;34594.93
1725465603.649;38;10.00;34594.93
1725465603.699;38;10.00;34594.93
1725465603.750;32;10.00;35699.54
1725465603.800;28;10.00;36330.67
1725465603.849;28;10.00;36330.67
1725465603.901;28;10.00;36330.67
1725465603.950;34;10.00;35333.46
1725465604.003;31;10.00;35748.73
1725465604.050;31;10.00;35748.73
1725465604.101;27;10.00;36521.27
1725465604.152;21;10.00;37674.20
1725465604.202;40;10.00;34110.54
1725465604.251;40;10.00;34110.54
1725465604.301;37;10.00;34732.80
1725465604.352;39;10.00;34258.93
1725465604.401;39;10.00;34372.20
1725465604.452;39;10.00;34372.20
1725465604.504;25;10.00;36842.33
1725465604.554;32;10.00;35712.33
1725465604.605;38;10.00;34479.54
1725465604.654;38;10.00;34479.54
1725465604.704;38;10.00;34502.13
1725465604.754;40;10.00;34127.07
1725465604.805;41;10.00;34040.80
1725465604.854;41;10.00;34040.80
1725465604.904;29;10.00;36243.46
1725465604.954;26;10.00;36684.67
1725465605.004;28;10.00;36311.07
1725465605.054;28;10.00;36311.07
1725465605.104;37;10.00;34723.40
1725465605.154;33;10.00;35487.20
1725465605.204;33;10.00;35487.20
1725465605.254;33;10.00;35487.20
1725465605.305;32;10.00;35723.73
1725465605.355;23;10.00;37221.73
1725465605.405;23;10.00;37221.73
1725465605.455;23;10.00;37221.73
1725465605.505;27;10.00;36645.27
1725465605.555;27;10.00;36560.87
1725465605.605;27;10.00;36560.87
1725465605.655;27;10.00;36560.87
1725465605.705;33;10.00;35494.00
1725465605.755;33;10.00;35409.40
1725465605.805;33;10.00;35409.40
1725465605.855;33;10.00;35409.40
1725465605.905;33;10.00;35508.60
1725465605.956;39;10.00;34348.40
1725465606.006;39;10.00;34348.40
1725465606.056;39;10.00;34348.40
1725465606.107;20;10.00;37836.40
1725465606.157;40;10.00;34091.40
1725465606.206;40;10.00;34091.40
1725465606.256;40;10.00;34091.40
1725465606.306;29;10.00;36114.33
1725465606.356;22;10.00;37390.80
1725465618.271;43;10.00;33691.33
1725465618.322;43;10.00;33691.33
1725465618.372;43;10.00;33691.33
1725465618.422;42;10.00;33712.13
1725465618.471;42;10.00;33712.13
1725465618.521;42;10.00;33712.13
1725465618.572;34;10.00;35260.07
1725465618.621;24;10.00;37072.80
1725465618.671;24;10.00;37072.80
1725465618.721;24;10.00;37072.80
1725465618.771;23;10.00;37281.60
1725465618.821;36;10.00;34969.27
1725465618.872;36;10.00;34969.27
1725465618.921;36;10.00;34969.27
1725465618.972;40;10.00;34162.80
1725465619.022;36;10.00;34866.93
1725465619.072;36;10.00;34866.93
1725465619.122;36;10.00;34866.93
1725465619.172;29;10.00;36106.54
1725465619.222;29;10.00;36106.54
1725465619.272;29;10.00;36106.54
1725465619.322;30;10.00;35973.27
1725465619.372;37;10.00;34682.54
1725465619.423;32;10.00;35657.60
1725465619.473;32;10.00;35657.60
1725465619.523;32;10.00;35657.60
1725465619.572;24;10.00;37141.93
1725465619.624;33;10.00;35398.33
1725465619.673;33;10.00;35398.33
1725465619.724;33;10.00;35398.33
1725465619.774;39;10.00;34360.27
1725465619.824;25;10.00;36943.27
1725465619.874;25;10.00;36943.27
1725465619.924;25;10.00;36943.27
1725465619.974;24;10.00;37065.46
1725465620.024;42;10.00;33815.73
1725465620.074;42;10.00;33815.73
1725465620.124;42;10.00;33733.60
1725465620.174;42;10.00;33801.33
1725465620.224;32;10.00;35662.46
1725465620.274;32;10.00;35662.46
1725465620.324;21;10.00;37751.87
1725465620.375;24;10.00;37021.00
1725465620.425;24;10.00;37021.00
1725465620.475;24;10.00;37021.00
1725465620.525;41;10.00;33879.33
1725465620.575;32;10.00;35548.93
1725465620.625;32;10.00;35548.93
1725465620.675;32;10.00;35548.93
1725465620.725;40;10.00;34093.33
1725465620.775;40;10.00;34118.13
1725465620.825;38;10.00;34460.00
1725465620.875;38;10.00;34460.00
1725465620.925;38;10.00;34463.46
1725465620.975;40;10.00;34095.40
1725465621.025;39;10.00;34372.46
1725465621.075;39;10.00;34372.46
1725465621.126;22;10.00;37532.80
1725465621.175;31;10.00;35841.87
1725465621.226;31;10.00;35841.87
1725465621.276;31;10.00;35841.87
1725465621.325;36;10.00;34803.87
1725465621.375;36;10.00;34803.87
1725465621.425;36;10.00;34803.87
1725465621.475;36;10.00;34803.87
1725465621.525;36;10.00;34861.27
1725465621.575;36;10.00;34861.27
1725465621.625;36;10.00;34861.27
1725465621.675;42;10.00;33783.73
1725465621.725;20;10.00;37839.07
1725465621.776;20;10.00;37839.07
1725465621.825;20;10.00;37839.07
1725465621.876;37;10.00;34774.40
1725465621.925;37;10.00;34767.87
1725465621.975;37;10.00;34767.87
1725465622.025;36;10.00;34950.33
1725465622.075;26;10.00;36800.07
1725465622.126;34;10.00;35238.13
1725465622.176;34;10.00;35238.13
1725465622.225;35;10.00;35056.54
1725465622.275;40;10.00;34109.60
1725465622.325;41;10.00;33962.67
1725465622.375;41;10.00;33962.67
1725465622.426;33;10.00;35518.33
1725465622.475;41;10.00;33993.46
1725465622.526;41;10.00;33993.46
1725465622.575;41;10.00;33993.46
1725465622.625;28;10.00;36402.00
1725465622.675;42;10.00;33693.73
1725465622.725;42;10.00;33693.73
1725465622.775;42;10.00;33693.73
1725465622.825;30;10.00;36023.67
1725465728.382;41;20.00;33990.13
1725465728.432;39;20.00;34407.07
1725465728.482;39;20.00;34407.07
1725465728.532;39;20.00;34407.07
1725465728.582;23;20.00;37267.33
1725465728.633;25;20.00;36890.00
1725465728.683;25;20.00;36890.00
1725465728.734;32;20.00;35601.80
1725465728.784;32;20.00;35547.40
1725465728.834;34;20.00;35336.07
1725465728.883;34;20.00;35336.07
1725465728.934;35;20.00;35071.27
1725465728.984;33;20.00;35477.67
1725465729.034;37;20.00;34619.00
1725465729.084;37;20.00;34619.00
1725465729.134;37;20.00;34619.00
1725465729.184;23;20.00;37339.46
1725465729.234;25;20.00;37014.60
1725465729.284;25;20.00;37014.60
1725465729.334;25;20.00;37014.60
1725465729.384;31;20.00;35885.93
1725465729.434;29;20.00;36149.60
1725465729.484;29;20.00;36149.60
1725465729.534;35;20.00;35012.27
1725465729.584;32;20.00;35649.20
1725465729.634;41;20.00;33951.80
1725465729.684;41;20.00;33951.80
1725465729.735;41;20.00;33951.80
1725465729.785;36;20.00;34826.13
1725465729.835;35;20.00;35091.20
1725465729.885;35;20.00;35091.20
1725465729.935;27;20.00;36559.13
1725465729.985;37;20.00;34744.73
1725465730.035;37;20.00;34744.73
1725465730.086;37;20.00;34744.73
1725465730.135;37;20.00;34744.73
1725465730.185;31;20.00;35869.93
1725465730.236;24;20.00;37063.93
1725465730.285;24;20.00;37063.93
1725465730.335;24;20.00;37063.93
1725465730.386;28;20.00;36295.87
1725465730.436;37;20.00;34722.13
1725465730.486;38;20.00;34554.93
1725465730.537;38;20.00;34554.93
1725465730.587;38;20.00;34593.87
1725465730.638;21;20.00;37681.20
1725465730.688;21;20.00;37681.20
1725465730.738;21;20.00;37681.20
1725465730.787;37;20.00;34662.46
1725465730.839;36;20.00;34855.46
1725465730.888;36;20.00;34855.46
1725465730.939;36;20.00;34855.46
1725465730.989;39;20.00;34426.00
1725465731.038;25;20.00;36906.33
1725465731.088;25;20.00;36906.33
1725465731.140;25;20.00;36906.33
1725465731.189;22;20.00;37399.27
1725465731.240;28;20.00;36334.93
1725465731.290;28;20.00;36334.93
1725465731.340;28;20.00;36334.93
1725465731.391;37;20.00;34647.67
1725465731.440;35;20.00;35100.60
1725465731.491;35;20.00;35100.60
1725465731.541;34;20.00;35170.73
1725465731.590;33;20.00;35411.27
1725465731.640;37;20.00;34700.54
1725465731.691;37;20.00;34700.54
1725465731.740;37;20.00;34700.54
1725465731.790;31;20.00;35730.20
1725465731.842;23;20.00;37209.54
1725465731.892;23;20.00;37209.54
1725465731.942;27;20.00;36475.40
1725465731.991;25;20.00;36868.80
1725465732.041;25;20.00;36868.80
1725465732.091;25;20.00;36868.80
1725465732.142;40;20.00;34244.27
1725465732.193;36;20.00;34839.73
1725465732.242;41;20.00;33911.20
1725465732.293;41;20.00;33911.20
1725465732.343;41;20.00;33911.20
1725465732.393;21;20.00;37699.33
1725465732.443;39;20.00;34353.73
1725465732.494;39;20.00;34353.73
1725465732.544;39;20.00;34353.73
1725465732.594;32;20.00;35561.60
1725465732.644;21;20.00;37705.13
1725465732.694;21;20.00;37705.13
1725465732.744;21;20.00;37705.13
1725465732.794;42;20.00;33748.46
1725465732.844;42;20.00;33766.80
1725465732.894;42;20.00;33766.80
1725465732.944;42;20.00;33766.80
1725465732.994;42;20.00;33766.80
1725465733.044;41;20.00;33990.40
1725465733.095;40;20.00;34104.80
1725465733.144;40;20.00;34104.80
1725465733.195;31;20.00;35738.13
1725465733.245;24;20.00;37125.73
1725465733.295;24;20.00;37125.73
1725465733.345;24;20.00;37125.73
1725465733.396;35;20.00;35122.07
1725465733.446;37;20.00;34616.54
1725465733.496;37;20.00;34616.54
1725465733.545;37;20.00;34616.54
1725465733.595;32;20.00;35565.33
1725465745.336;42;20.00;33746.13
1725465745.383;42;20.00;33746.13
1725465745.434;42;20.00;33746.13
1725465745.484;42;20.00;33793.87
1725465745.534;25;20.00;36985.60
1725465745.584;25;20.00;36985.60
1725465745.634;25;20.00;36985.60
1725465745.683;36;20.00;34826.20
1725465745.734;37;20.00;34643.20
1725465745.784;37;20.00;34643.20
1725465745.834;37;20.00;34643.20
1725465745.884;27;20.00;36497.80
1725465745.934;37;20.00;34695.73
1725465745.984;37;20.00;34695.73
1725465746.034;37;20.00;34695.73
1725465746.084;35;20.00;35109.33
1725465746.134;36;20.00;34803.20
1725465746.184;38;20.00;34600.00
1725465746.234;38;20.00;34600.00
1725465746.285;30;20.00;36045.13
1725465746.335;41;20.00;34028.00
1725465746.385;41;20.00;34028.00
1725465746.435;41;20.00;34028.00
1725465746.486;35;20.00;35029.87
1725465746.536;32;20.00;35602.00
1725465746.585;32;20.00;35588.13
1725465746.635;32;20.00;35588.13
1725465746.688;28;20.00;36322.60
1725465746.737;26;20.00;36821.73
1725465746.788;32;20.00;35719.46
1725465746.838;32;20.00;35719.46
1725465746.888;40;20.00;34222.80
1725465746.938;41;20.00;34019.46
1725465746.989;38;20.00;34548.54
1725465747.040;38;20.00;34548.54
1725465747.089;38;20.00;34548.54
1725465747.140;38;20.00;34589.07
1725465747.189;24;20.00;37037.54
1725465747.239;24;20.00;37037.54
1725465747.290;24;20.00;37037.54
1725465747.340;39;20.00;34331.20
1725465747.391;39;20.00;34311.20
1725465747.440;39;20.00;34311.20
1725465747.491;39;20.00;34311.20
1725465747.541;31;20.00;35863.54
1725465747.591;30;20.00;36086.73
1725465747.641;30;20.00;36086.73
1725465747.691;33;20.00;35393.87
1725465747.742;31;20.00;35809.13
1725465747.791;33;20.00;35404.33
1725465747.842;33;20.00;35404.33
1725465747.892;34;20.00;35322.07
1725465747.942;27;20.00;36514.27
1725465747.992;27;20.00;36514.27
1725465748.042;27;20.00;36514.27
1725465748.092;33;20.00;35471.00
1725465748.142;33;20.00;35444.87
1725465748.193;33;20.00;35444.87
1725465748.243;33;20.00;35444.87
1725465748.292;42;20.00;33741.46
1725465748.343;28;20.00;36329.46
1725465748.393;28;20.00;36329.46
1725465748.443;28;20.00;36329.46
1725465748.493;23;20.00;37244.87
1725465748.543;31;20.00;35752.13
1725465748.592;31;20.00;35752.13
1725465748.644;31;20.00;35752.13
1725465748.694;40;20.00;34142.67
1725465748.744;40;20.00;34142.67
1725465748.794;40;20.00;34142.67
1725465748.844;40;20.00;34142.67
1725465748.894;40;20.00;34108.80
1725465748.944;40;20.00;34108.80
1725465748.994;40;20.00;34108.80
1725465749.045;40;20.00;34108.80
1725465749.095;32;20.00;35612.00
1725465749.145;40;20.00;34172.13
1725465749.195;40;20.00;34172.13
1725465749.245;40;20.00;34172.13
1725465749.296;36;20.00;34878.27
1725465749.346;36;20.00;34878.27
1725465749.396;36;20.00;34878.27
1725465749.447;36;20.00;34878.27
1725465749.497;40;20.00;34200.46
1725465749.547;38;20.00;34594.93
1725465749.597;38;20.00;34594.93
1725465749.647;38;20.00;34594.93
1725465749.696;40;20.00;34177.07
1725465749.748;41;20.00;33974.67
1725465749.797;33;20.00;35394.46
1725465749.848;33;20.00;35394.46
1725465749.897;40;20.00;34064.13
1725465749.948;38;20.00;34556.60
1725465749.997;43;20.00;33644.80
1725465750.047;43;20.00;33644.80
1725465750.099;20;20.00;37877.20
1725465750.149;23;20.00;37377.27
1725465750.199;23;20.00;37377.27
1725465750.249;23;20.00;37377.27
1725465750.299;35;20.00;35117.27
1725465750.349;33;20.00;35383.67
1725465750.399;33;20.00;35383.67
1725465750.449;33;20.00;35383.67
1725465750.499;28;20.00;36314.20
1725465762.551;42;20.00;33756.40
1725465762.602;39;20.00;34321.87
1725465762.652;39;20.00;34321.87
1725465762.702;31;20.00;35851.00
1725465762.752;36;20.00;34837.20
1725465762.802;36;20.00;34837.20
1725465762.852;36;20.00;34837.20
1725465762.903;30;20.00;35930.60
1725465762.953;31;20.00;35843.33
1725465763.002;31;20.00;35843.33
1725465763.053;31;20.00;35843.33
1725465763.102;37;20.00;34677.73
1725465763.153;31;20.00;35904.33
1725465763.204;31;20.00;35904.33
1725465763.254;31;20.00;35904.33
1725465763.303;31;20.00;35820.80
1725465763.354;31;20.00;35861.87
1725465763.404;31;20.00;35861.87
1725465763.454;31;20.00;35861.87
1725465763.504;27;20.00;36572.33
1725465763.554;29;20.00;36180.07
1725465763.604;29;20.00;36180.07
1725465763.654;29;20.00;36180.07
1725465763.705;29;20.00;36236.33
1725465763.754;34;20.00;35265.87
1725465763.804;34;20.00;35265.87
1725465763.854;34;20.00;35265.87
1725465763.905;30;20.00;35919.27
1725465763.954;32;20.00;35601.54
1725465764.004;32;20.00;35601.54
1725465764.055;32;20.00;35601.54
1725465764.105;43;20.00;33691.73
1725465764.154;42;20.00;33807.20
1725465764.204;42;20.00;33807.20
1725465764.254;42;20.00;33807.20
1725465764.305;35;20.00;35061.93
1725465764.354;34;20.00;35228.67
1725465764.405;34;20.00;35228.67
1725465764.455;34;20.00;35228.67
1725465764.504;39;20.00;34354.93
1725465764.555;34;20.00;35312.46
1725465764.605;30;20.00;35929.13
1725465764.655;30;20.00;35929.13
1725465764.705;32;20.00;35575.00
1725465764.755;26;20.00;36731.40
1725465764.805;26;20.00;36731.40
1725465764.856;26;20.00;36731.40
1725465764.906;35;20.00;35082.93
1725465764.955;36;20.00;34932.87
1725465765.005;36;20.00;34932.87
1725465765.055;36;20.00;34932.87
1725465765.105;40;20.00;34080.93
1725465765.156;23;20.00;37380.93
1725465765.205;23;20.00;37380.93
1725465765.255;23;20.00;37380.93
1725465765.306;38;20.00;34497.73
1725465765.355;32;20.00;35627.33
1725465765.405;32;20.00;35627.33
1725465765.455;32;20.00;35627.33
1725465765.506;41;20.00;33931.07
1725465765.556;34;20.00;35276.80
1725465765.606;30;20.00;35914.40
1725465765.656;30;20.00;35914.40
1725465765.705;38;20.00;34435.46
1725465765.756;31;20.00;35890.87
1725465765.806;39;20.00;34412.13
1725465765.855;39;20.00;34412.13
1725465765.907;32;20.00;35588.80
1725465765.957;26;20.00;36680.00
1725465766.007;40;20.00;34210.40
1725465766.057;40;20.00;34210.40
1725465766.108;32;20.00;35697.87
1725465766.158;36;20.00;34807.33
1725465766.207;28;20.00;36289.60
1725465766.258;28;20.00;36289.60
1725465766.307;35;20.00;35115.00
1725465766.357;29;20.00;36142.73
1725465766.408;42;20.00;33765.07
1725465766.458;42;20.00;33765.07
1725465766.509;25;20.00;37008.87
1725465766.559;37;20.00;34636.60
1725465766.609;37;20.00;34636.60
1725465766.658;37;20.00;34636.60
1725465766.709;36;20.00;34865.73
1725465766.759;27;20.00;36557.80
1725465766.810;27;20.00;36509.13
1725465766.859;27;20.00;36509.13
1725465766.910;41;20.00;34013.33
1725465766.959;42;20.00;33832.13
1725465767.009;43;20.00;33643.60
1725465767.060;43;20.00;33643.60
1725465767.110;38;20.00;34483.93
1725465767.159;23;20.00;37344.93
1725465767.209;21;20.00;37703.46
1725465767.260;21;20.00;37703.46
1725465767.309;37;20.00;34757.33
1725465767.360;37;20.00;34694.80
1725465767.409;40;20.00;34081.33
1725465767.461;40;20.00;34081.33
1725465767.510;41;20.00;33883.20
1725465767.561;35;20.00;35107.33
1725465767.610;33;20.00;35471.80
1725465767.662;33;20.00;35471.80
1725465767.711;38;20.00;34447.20
1725465767.762;41;20.00;33953.07
1725465915.929;41;30.00;33905.87
1725465915.979;40;30.00;34084.00
1725465916.029;40;30.00;34084.00
1725465916.080;41;30.00;33891.87
1725465916.131;35;30.00;35048.73
1725465916.181;35;30.00;35048.73
1725465916.230;35;30.00;35048.73
1725465916.281;39;30.00;34314.20
1725465916.332;35;30.00;35061.33
1725465916.381;24;30.00;37050.20
1725465916.431;24;30.00;37050.20
1725465916.481;24;30.00;37050.20
1725465916.531;34;30.00;35353.80
1725465916.581;39;30.00;34378.00
1725465916.632;39;30.00;34378.00
1725465916.681;39;30.00;34378.00
1725465916.731;39;30.00;34394.40
1725465916.782;17;30.00;38497.00
1725465916.833;17;30.00;38497.00
1725465916.883;17;30.00;38497.00
1725465916.934;17;30.00;38497.00
1725465916.984;28;30.00;36348.46
1725465917.034;28;30.00;36348.46
1725465917.084;23;30.00;37287.27
1725465917.134;18;30.00;38272.40
1725465917.184;38;30.00;34513.87
1725465917.234;38;30.00;34513.87
1725465917.284;38;30.00;34513.87
1725465917.334;39;30.00;34255.33
1725465917.384;26;30.00;36826.20
1725465917.434;26;30.00;36826.20
1725465917.484;26;30.00;36826.20
1725465917.534;18;30.00;38128.54
1725465917.584;21;30.00;37615.07
1725465917.634;21;30.00;37615.07
1725465917.685;37;30.00;34712.00
1725465917.734;39;30.00;34410.93
1725465917.785;36;30.00;34898.93
1725465917.835;36;30.00;34898.93
1725465917.885;36;30.00;34898.93
1725465917.935;40;30.00;34093.73
1725465917.985;36;30.00;34961.00
1725465918.036;36;30.00;34961.00
1725465918.085;36;30.00;34961.00
1725465918.136;37;30.00;34643.00
1725465918.186;33;30.00;35394.60
1725465918.235;33;30.00;35394.60
1725465918.286;33;30.00;35394.60
1725465918.336;39;30.00;34400.46
1725465918.386;22;30.00;37447.80
1725465918.436;22;30.00;37447.80
1725465918.487;22;30.00;37447.80
1725465918.536;33;30.00;35536.20
1725465918.586;35;30.00;35109.13
1725465918.636;35;30.00;35109.13
1725465918.687;35;30.00;35109.13
1725465918.737;20;30.00;37758.40
1725465918.787;28;30.00;36413.54
1725465918.837;28;30.00;36413.54
1725465918.888;28;30.00;36413.54
1725465918.938;37;30.00;34772.46
1725465918.987;33;30.00;35404.07
1725465919.037;33;30.00;35404.07
1725465919.088;33;30.00;35404.07
1725465919.138;24;30.00;37059.73
1725465919.188;28;30.00;36441.33
1725465919.237;28;30.00;36441.33
1725465919.288;28;30.00;36441.33
1725465919.338;39;30.00;34409.33
1725465919.388;38;30.00;34567.46
1725465919.437;38;30.00;34567.46
1725465919.488;32;30.00;35553.07
1725465919.542;24;30.00;37176.13
1725465919.588;24;30.00;37176.13
1725465919.638;24;30.00;37176.13
1725465919.688;21;30.00;37729.87
1725465919.738;21;30.00;37729.87
1725465919.787;21;30.00;37729.87
1725465919.838;21;30.00;37729.87
1725465919.889;39;30.00;34257.27
1725465919.939;20;30.00;37933.67
1725465919.989;20;30.00;37933.67
1725465920.038;20;30.00;37933.67
1725465920.089;35;30.00;35042.13
1725465920.139;32;30.00;35614.20
1725465920.189;32;30.00;35614.20
1725465920.239;32;30.00;35614.20
1725465920.289;26;30.00;36696.46
1725465920.339;18;30.00;38257.60
1725465920.389;18;30.00;38257.60
1725465920.439;18;30.00;38257.60
1725465920.490;38;30.00;34546.07
1725465920.540;37;30.00;34676.20
1725465920.590;37;30.00;34676.20
1725465920.640;37;30.00;34676.20
1725465920.690;41;30.00;34002.27
1725465920.741;35;30.00;35167.46
1725465920.790;35;30.00;35167.46
1725465920.840;35;30.00;35167.46
1725465920.891;21;30.00;37670.87
1725465932.848;42;30.00;33862.07
1725465932.898;39;30.00;34385.33
1725465932.949;39;30.00;34385.33
1725465932.999;39;30.00;34385.33
1725465933.050;37;30.00;34727.20
1725465933.099;17;30.00;38351.33
1725465933.150;17;30.00;38351.33
1725465933.200;23;30.00;37346.54
1725465933.251;21;30.00;37662.67
1725465933.301;23;30.00;37353.40
1725465933.351;23;30.00;37353.40
1725465933.453;23;30.00;37210.20
1725465933.503;40;30.00;34062.67
1725465933.552;40;30.00;34062.67
1725465933.603;40;30.00;34062.67
1725465933.652;42;30.00;33765.33
1725465933.702;22;30.00;37495.87
1725465933.754;22;30.00;37495.87
1725465933.803;22;30.00;37495.87
1725465933.854;33;30.00;35401.40
1725465933.904;20;30.00;37839.46
1725465933.954;20;30.00;37839.46
1725465934.004;20;30.00;37839.46
1725465934.055;20;30.00;37763.13
1725465934.105;24;30.00;37030.40
1725465934.155;24;30.00;37030.40
1725465934.205;24;30.00;37030.40
1725465934.255;31;30.00;35739.40
1725465934.305;32;30.00;35678.27
1725465934.355;32;30.00;35678.27
1725465934.405;38;30.00;34556.13
1725465934.456;37;30.00;34784.60
1725465934.505;37;30.00;34784.60
1725465934.555;37;30.00;34784.60
1725465934.605;24;30.00;37114.80
1725465934.655;34;30.00;35300.67
1725465934.705;39;30.00;34286.87
1725465934.755;39;30.00;34286.87
1725465934.805;39;30.00;34286.87
1725465934.862;28;30.00;36433.00
1725465934.909;36;30.00;34875.73
1725465934.959;36;30.00;34875.73
1725465935.010;36;30.00;34875.73
1725465935.060;33;30.00;35397.93
1725465935.110;19;30.00;38007.46
1725465935.160;19;30.00;38007.46
1725465935.210;19;30.00;38007.46
1725465935.261;36;30.00;34950.33
1725465935.310;31;30.00;35870.27
1725465935.360;31;30.00;35870.27
1725465935.411;31;30.00;35870.27
1725465935.461;36;30.00;34966.33
1725465935.511;39;30.00;34395.13
1725465935.562;39;30.00;34395.13
1725465935.611;19;30.00;38094.13
1725465935.661;40;30.00;34224.00
1725465935.712;40;30.00;34094.40
1725465935.762;40;30.00;34094.40
1725465935.811;40;30.00;34094.40
1725465935.862;37;30.00;34643.40
1725465935.911;32;30.00;35721.80
1725465935.962;32;30.00;35721.80
1725465936.012;32;30.00;35721.80
1725465936.062;37;30.00;34656.54
1725465936.113;34;30.00;35252.60
1725465936.162;34;30.00;35252.60
1725465936.212;34;30.00;35252.60
1725465936.262;37;30.00;34725.87
1725465936.312;33;30.00;35428.07
1725465936.363;33;30.00;35428.07
1725465936.413;40;30.00;34152.73
1725465936.464;33;30.00;35399.67
1725465936.514;33;30.00;35454.60
1725465936.564;33;30.00;35454.60
1725465936.614;33;30.00;35415.87
1725465936.664;24;30.00;37114.80
1725465936.714;24;30.00;37114.80
1725465936.764;24;30.00;37114.80
1725465936.814;33;30.00;35515.00
1725465936.865;38;30.00;34472.33
1725465936.915;38;30.00;34472.33
1725465936.964;38;30.00;34472.33
1725465937.014;32;30.00;35558.80
1725465937.064;36;30.00;34864.13
1725465937.114;36;30.00;34864.13
1725465937.164;36;30.00;34864.13
1725465937.214;22;30.00;37448.93
1725465937.264;36;30.00;34924.33
1725465937.315;36;30.00;34924.33
1725465937.364;36;30.00;34924.33
1725465937.414;37;30.00;34690.80
1725465937.465;23;30.00;37375.33
1725465937.514;23;30.00;37375.33
1725465937.564;23;30.00;37375.33
1725465937.615;23;30.00;37318.00
1725465937.665;19;30.00;38070.40
1725465937.715;32;30.00;35677.87
1725465937.766;32;30.00;35677.87
1725465937.816;26;30.00;36656.54
1725465937.866;20;30.00;37907.27
1725465950.065;42;30.00;33765.20
1725465950.115;41;30.00;33893.60
1725465950.166;41;30.00;33893.60
1725465950.216;41;30.00;33893.60
1725465950.265;23;30.00;37263.13
1725465950.316;25;30.00;36839.40
1725465950.365;25;30.00;36839.40
1725465950.416;21;30.00;37736.73
1725465950.466;27;30.00;36508.00
1725465950.516;36;30.00;34970.67
1725465950.566;36;30.00;34970.67
1725465950.616;36;30.00;34970.67
1725465950.667;41;30.00;33964.13
1725465950.716;22;30.00;37456.93
1725465950.766;22;30.00;37456.93
1725465950.816;22;30.00;37456.93
1725465950.866;36;30.00;34937.20
1725465950.916;33;30.00;35420.46
1725465950.978;33;30.00;35420.46
1725465951.016;33;30.00;35420.46
1725465951.066;21;30.00;37579.93
1725465951.116;19;30.00;37969.13
1725465951.167;19;30.00;37969.13
1725465951.217;19;30.00;37969.13
1725465951.267;38;30.00;34449.40
1725465951.317;25;30.00;36934.27
1725465951.367;25;30.00;36934.27
1725465951.417;25;30.00;36934.27
1725465951.467;24;30.00;37107.87
1725465951.517;38;30.00;34442.40
1725465951.567;38;30.00;34442.40
1725465951.617;38;30.00;34442.40
1725465951.667;42;30.00;33772.54
1725465951.717;20;30.00;37852.33
1725465951.768;20;30.00;37852.33
1725465951.817;20;30.00;37852.33
1725465951.868;23;30.00;37249.07
1725465951.917;28;30.00;36431.93
1725465951.968;28;30.00;36431.93
1725465952.018;28;30.00;36431.93
1725465952.068;42;30.00;33872.13
1725465952.118;34;30.00;35198.73
1725465952.168;34;30.00;35198.73
1725465952.218;34;30.00;35198.73
1725465952.268;40;30.00;34213.73
1725465952.317;21;30.00;37643.46
1725465952.368;21;30.00;37643.46
1725465952.418;21;30.00;37643.46
1725465952.469;35;30.00;35016.33
1725465952.518;34;30.00;35213.46
1725465952.569;34;30.00;35213.46
1725465952.619;34;30.00;35213.46
1725465952.669;34;30.00;35326.80
1725465952.719;21;30.00;37734.60
1725465952.769;21;30.00;37734.60
1725465952.820;21;30.00;37734.60
1725465952.869;37;30.00;34667.93
1725465952.921;36;30.00;34853.54
1725465952.970;36;30.00;34853.54
1725465953.020;31;30.00;35762.00
1725465953.071;26;30.00;36755.87
1725465953.120;36;30.00;34876.87
1725465953.171;36;30.00;34876.87
1725465953.221;37;30.00;34770.46
1725465953.272;24;30.00;37088.46
1725465953.322;35;30.00;34987.07
1725465953.373;35;30.00;34987.07
1725465953.422;35;30.00;34987.07
1725465953.473;37;30.00;34755.33
1725465953.522;30;30.00;36048.33
1725465953.572;30;30.00;36048.33
1725465953.624;30;30.00;36048.33
1725465953.674;17;30.00;38409.46
1725465953.724;37;30.00;34616.54
1725465953.774;36;30.00;34817.73
1725465953.824;36;30.00;34817.73
1725465953.874;36;30.00;34918.93
1725465953.924;21;30.00;37661.80
1725465953.974;21;30.00;37661.80
1725465954.025;21;30.00;37661.80
1725465954.075;34;30.00;35258.93
1725465954.125;37;30.00;34791.80
1725465954.175;37;30.00;34791.80
1725465954.225;37;30.00;34791.80
1725465954.275;37;30.00;34709.60
1725465954.325;24;30.00;37120.60
1725465954.376;24;30.00;37120.60
1725465954.425;25;30.00;36889.93
1725465954.476;17;30.00;38355.60
1725465954.526;22;30.00;37520.20
1725465954.576;22;30.00;37520.20
1725465954.626;33;30.00;35538.54
1725465954.676;36;30.00;34804.60
1725465954.726;36;30.00;34804.60
1725465954.775;36;30.00;34804.60
1725465954.826;28;30.00;36340.80
1725465954.876;30;30.00;35986.07
1725466100.858;50;12.98;33977.20
1725466100.910;50;13.38;34425.73
1725466100.960;50;13.38;34425.73
1725466101.010;50;13.38;34425.73
1725466101.059;50;16.77;38242.73
1725466101.110;50;16.17;37568.73
1725466101.160;50;16.17;37568.73
1725466101.209;50;16.17;37568.73
1725466101.261;50;13.84;34951.33
1725466101.310;50;15.15;36421.87
1725466101.361;50;15.15;36421.87
1725466101.411;50;15.15;36421.87
1725466101.461;50;16.47;37897.93
1725466101.511;50;14.59;35791.00
1725466101.561;50;14.59;35791.00
1725466101.610;50;14.59;35791.00
1725466101.660;50;13.14;34166.27
1725466101.711;50;13.41;34469.20
1725466101.762;50;13.41;34469.20
1725466101.811;50;13.41;34469.20
1725466101.861;50;14.82;36051.00
1725466101.913;50;15.38;36679.00
1725466101.962;50;15.58;36898.00
1725466102.013;50;15.58;36898.00
1725466102.062;50;15.93;37298.27
1725466102.112;50;13.62;34698.13
1725466102.162;50;13.62;34698.13
1725466102.213;50;12.92;33908.80
1725466102.264;50;16.67;38128.67
1725466102.314;50;15.11;36369.60
1725466102.364;50;15.11;36369.60
1725466102.414;50;14.50;35693.20
1725466102.464;50;14.38;35551.07
1725466102.514;50;14.38;35551.07
1725466102.564;50;14.38;35551.07
1725466102.614;50;14.53;35717.33
1725466102.664;50;13.49;34553.46
1725466102.714;50;13.49;34553.46
1725466102.765;50;13.49;34553.46
1725466102.814;50;13.56;34632.80
1725466102.865;50;16.12;37510.27
1725466102.914;50;14.16;35305.00
1725466102.964;50;14.16;35305.00
1725466103.014;50;14.20;35354.73
1725466103.064;50;16.28;37689.93
1725466103.115;50;14.60;35795.87
1725466103.165;50;14.60;35795.87
1725466103.215;50;14.60;35795.87
1725466103.265;50;12.97;33964.80
1725466103.315;50;13.66;34742.00
1725466103.365;50;13.66;34742.00
1725466103.415;50;13.66;34742.00
1725466103.465;50;13.99;35113.87
1725466103.515;50;15.91;37269.40
1725466103.565;50;15.91;37269.40
1725466103.615;50;15.91;37269.40
1725466103.665;50;16.37;37792.20
1725466103.715;50;14.13;35270.80
1725466103.765;50;14.13;35270.80
1725466103.815;50;14.13;35270.80
1725466103.865;50;16.62;38067.46
1725466103.915;50;13.68;34765.87
1725466103.965;50;13.68;34765.87
1725466104.015;50;13.68;34765.87
1725466104.066;50;15.88;37233.73
1725466104.115;50;13.60;34682.33
1725466104.166;50;13.60;34682.33
1725466104.216;50;13.60;34682.33
1725466104.265;50;15.15;36421.13
1725466104.316;50;16.59;38033.07
1725466104.366;50;16.59;38033.07
1725466104.416;50;16.06;37445.20
1725466104.466;50;15.40;36696.80
1725466104.517;50;12.99;33991.87
1725466104.566;50;12.99;33991.87
1725466104.616;50;12.99;33991.87
1725466104.666;50;14.70;35916.46
1725466104.716;50;15.80;37153.33
1725466104.766;50;15.80;37153.33
1725466104.817;50;15.52;36832.60
1725466104.867;50;13.80;34898.40
1725466104.917;50;14.56;35759.33
1725466104.967;50;14.56;35759.33
1725466105.018;50;14.56;35759.33
1725466105.068;50;15.95;37317.27
1725466105.117;50;14.61;35817.73
1725466105.167;50;14.61;35817.73
1725466105.218;50;14.61;35817.73
1725466105.268;50;13.67;34761.87
1725466105.318;50;16.55;37991.20
1725466105.368;50;16.55;37991.20
1725466105.418;50;16.55;37991.20
1725466105.468;50;16.26;37667.33
1725466105.518;50;16.21;37605.27
1725466105.568;50;16.21;37605.27
1725466105.619;50;16.21;37605.27
1725466105.670;50;14.35;35518.40
1725466105.719;50;13.40;34456.46
1725466105.769;50;13.40;34456.46
1725466105.820;50;14.92;36162.46
1725466105.870;50;14.01;35134.87
1725466117.814;50;12.71;33679.67
1725466117.864;50;12.77;33742.40
1725466117.914;50;12.77;33742.40
1725466117.964;50;12.77;33742.40
1725466118.015;50;15.24;36519.87
1725466118.065;50;13.12;34135.33
1725466118.114;50;13.12;34135.33
1725466118.165;50;13.12;34135.33
1725466118.215;50;16.67;38126.46
1725466118.266;50;16.67;38126.46
1725466118.316;50;16.67;38126.46
1725466118.366;50;13.26;34298.40
1725466118.417;50;16.41;37830.93
1725466118.466;50;16.41;37830.93
1725466118.517;50;16.41;37830.93
1725466118.566;50;15.74;37086.07
1725466118.617;50;15.07;36329.54
1725466118.666;50;15.07;36329.54
1725466118.717;50;12.74;33708.80
1725466118.766;50;13.58;34657.87
1725466118.817;50;13.41;34465.33
1725466118.867;50;13.41;34465.33
1725466118.917;50;13.41;34465.33
1725466118.966;50;15.18;36448.93
1725466119.016;50;16.09;37476.46
1725466119.067;50;16.09;37476.46
1725466119.117;50;15.74;37086.00
1725466119.167;50;15.09;36353.27
1725466119.217;50;14.36;35529.87
1725466119.267;50;14.36;35529.87
1725466119.317;50;14.36;35529.87
1725466119.368;50;13.32;34365.40
1725466119.417;50;12.68;33638.93
1725466119.468;50;12.68;33638.93
1725466119.518;50;12.68;33638.93
1725466119.568;50;15.80;37150.33
1725466119.617;50;16.47;37907.20
1725466119.668;50;16.47;37907.20
1725466119.718;50;16.47;37907.20
1725466119.768;50;14.92;36156.00
1725466119.818;50;15.60;36921.33
1725466119.868;50;15.60;36921.33
1725466119.918;50;15.60;36921.33
1725466119.968;50;14.18;35334.27
1725466120.019;50;16.48;37910.93
1725466120.068;50;16.48;37910.93
1725466120.118;50;16.48;37910.93
1725466120.168;50;16.30;37712.00
1725466120.218;50;15.68;37013.93
1725466120.268;50;15.68;37013.93
1725466120.318;50;15.68;37013.93
1725466120.368;50;15.69;37026.93
1725466120.418;50;16.58;38020.07
1725466120.468;50;16.58;38020.07
1725466120.518;50;16.58;38020.07
1725466120.568;50;14.18;35327.87
1725466120.618;50;15.18;36451.07
1725466120.669;50;15.18;36451.07
1725466120.719;50;15.21;36483.67
1725466120.768;50;14.75;35965.67
1725466120.818;50;14.75;35965.67
1725466120.869;50;14.75;35965.67
1725466120.918;50;14.83;36063.27
1725466120.969;50;15.54;36851.87
1725466121.019;50;15.54;36851.87
1725466121.069;50;15.54;36851.87
1725466121.119;50;14.77;35987.60
1725466121.169;50;13.94;35055.73
1725466121.219;50;13.94;35055.73
1725466121.269;50;13.94;35055.73
1725466121.318;50;15.55;36870.80
1725466121.369;50;15.35;36638.07
1725466121.419;50;14.08;35218.80
1725466121.469;50;14.08;35218.80
1725466121.518;50;13.22;34253.46
1725466121.570;50;13.13;34148.73
1725466121.620;50;13.13;34148.73
1725466121.670;50;13.13;34148.73
1725466121.720;50;13.67;34751.54
1725466121.770;50;13.17;34194.27
1725466121.820;50;13.12;34133.60
1725466121.870;50;13.12;34133.60
1725466121.920;50;14.26;35421.46
1725466121.971;50;14.32;35481.80
1725466122.021;50;13.81;34913.33
1725466122.071;50;13.81;34913.33
1725466122.122;50;15.33;36622.80
1725466122.172;50;15.06;36314.07
1725466122.221;50;15.06;36314.07
1725466122.271;50;15.06;36314.07
1725466122.321;50;14.88;36111.33
1725466122.371;50;13.36;34407.13
1725466122.421;50;13.36;34407.13
1725466122.471;50;13.36;34407.13
1725466122.523;50;13.93;35050.80
1725466122.572;50;16.10;37484.13
1725466122.623;50;12.83;33808.27
1725466122.674;50;12.83;33808.27
1725466122.724;50;13.37;34418.46
1725466122.774;50;15.99;37363.87
1725466134.490;50;12.77;33742.27
1725466134.540;50;12.77;33742.27
1725466134.590;50;12.77;33742.27
1725466134.640;50;13.24;34269.46
1725466134.690;50;13.24;34269.46
1725466134.741;50;13.24;34269.46
1725466134.791;50;13.24;34269.46
1725466134.840;50;16.17;37559.54
1725466134.891;50;16.17;37559.54
1725466134.941;50;16.17;37559.54
1725466134.991;50;16.07;37447.93
1725466135.042;50;15.89;37253.20
1725466135.091;50;15.89;37253.20
1725466135.142;50;15.89;37253.20
1725466135.192;50;13.23;34267.20
1725466135.241;50;16.20;37602.27
1725466135.291;50;16.20;37602.27
1725466135.343;50;15.75;37089.73
1725466135.393;50;15.00;36248.87
1725466135.442;50;13.78;34883.73
1725466135.492;50;13.78;34883.73
1725466135.543;50;14.01;35134.20
1725466135.592;50;14.05;35179.20
1725466135.642;50;13.86;34967.46
1725466135.692;50;13.86;34967.46
1725466135.742;50;15.92;37284.07
1725466135.793;50;16.18;37572.80
1725466135.843;50;16.18;37572.80
1725466135.894;50;16.18;37572.80
1725466135.944;50;14.20;35355.93
1725466135.994;50;15.76;37108.07
1725466136.044;50;15.76;37108.07
1725466136.095;50;15.76;37108.07
1725466136.145;50;16.32;37738.67
1725466136.195;50;14.45;35629.80
1725466136.244;50;14.27;35431.67
1725466136.295;50;14.27;35431.67
1725466136.345;50;15.32;36609.13
1725466136.394;50;16.35;37765.73
1725466136.446;50;16.35;37765.73
1725466136.496;50;16.35;37765.73
1725466136.546;50;13.19;34217.93
1725466136.596;50;15.61;36931.40
1725466136.646;50;15.61;36931.40
1725466136.696;50;15.61;36931.40
1725466136.746;50;13.35;34399.20
1725466136.797;50;16.58;38030.73
1725466136.846;50;16.58;38030.73
1725466136.896;50;16.58;38030.73
1725466136.946;50;16.30;37710.27
1725466136.997;50;14.33;35497.40
1725466137.048;50;14.33;35497.40
1725466137.098;50;14.33;35497.40
1725466137.148;50;15.61;36936.46
1725466137.198;50;16.18;37572.33
1725466137.248;50;16.46;37888.93
1725466137.298;50;16.46;37888.93
1725466137.348;50;13.05;34059.67
1725466137.398;50;14.05;35180.67
1725466137.448;50;13.56;34635.60
1725466137.498;50;13.56;34635.60
1725466137.548;50;15.98;37356.07
1725466137.598;50;15.85;37200.60
1725466137.648;50;15.85;37200.60
1725466137.698;50;15.85;37200.60
1725466137.748;50;15.73;37070.00
1725466137.798;50;15.67;37001.87
1725466137.848;50;15.67;37001.87
1725466137.898;50;13.19;34218.00
1725466137.948;50;16.28;37683.13
1725466137.999;50;16.28;37683.13
1725466138.048;50;14.76;35986.07
1725466138.099;50;16.54;37979.13
1725466138.149;50;16.54;37979.13
1725466138.199;50;16.54;37979.13
1725466138.250;50;15.01;36262.73
1725466138.300;50;14.92;36156.40
1725466138.350;50;15.05;36305.07
1725466138.400;50;15.05;36305.07
1725466138.451;50;14.20;35354.20
1725466138.501;50;13.76;34857.60
1725466138.552;50;14.13;35275.33
1725466138.602;50;14.13;35275.33
1725466138.652;50;16.19;37592.46
1725466138.702;50;15.69;37029.80
1725466138.752;50;15.69;37029.80
1725466138.802;50;15.69;37029.80
1725466138.851;50;15.29;36571.87
1725466138.901;50;16.18;37578.67
1725466138.952;50;16.18;37578.67
1725466139.002;50;16.18;37578.67
1725466139.052;50;16.01;37389.87
1725466139.101;50;15.91;37271.60
1725466139.151;50;15.91;37271.60
1725466139.202;50;15.91;37271.60
1725466139.252;50;14.15;35297.67
1725466139.301;50;15.95;37320.60
1725466139.352;50;15.95;37320.60
1725466139.403;50;15.95;37320.60
1725466139.453;50;13.65;34737.60
1725466423.934;350;13.34;34382.67
1725466423.985;350;13.34;34382.67
1725466424.035;350;13.34;34382.67
1725466424.085;350;14.48;35671.54
1725466424.135;350;16.90;38385.93
1725466424.185;350;16.90;38385.93
1725466424.235;350;16.91;38395.80
1725466424.285;350;16.78;38247.80
1725466424.335;350;16.78;38247.80
1725466424.385;350;16.78;38247.80
1725466424.436;350;15.34;36629.93
1725466424.485;350;16.82;38289.40
1725466424.535;350;16.82;38289.40
1725466424.585;350;16.82;38289.40
1725466424.636;350;16.96;38446.46
1725466424.685;350;16.25;37657.46
1725466424.735;350;16.25;37657.46
1725466424.786;350;16.25;37657.46
1725466424.836;350;16.90;38385.07
1725466424.886;350;16.93;38415.54
1725466424.935;350;16.93;38415.54
1725466424.986;350;16.93;38415.54
1725466425.037;350;14.81;36040.67
1725466425.086;350;15.51;36818.40
1725466425.136;350;15.51;36818.40
1725466425.187;350;15.51;36818.40
1725466425.237;350;16.90;38385.20
1725466425.287;350;16.71;38171.73
1725466425.337;350;16.71;38171.73
1725466425.388;350;16.71;38171.73
1725466425.438;350;14.12;35265.33
1725466425.489;350;15.21;36487.13
1725466425.538;350;15.21;36487.13
1725466425.589;350;15.21;36487.13
1725466425.640;350;16.89;38376.27
1725466425.689;350;16.76;38229.87
1725466425.740;350;16.76;38229.87
1725466425.791;350;16.76;38229.87
1725466425.841;350;16.48;37911.73
1725466425.890;350;14.21;35365.67
1725466425.941;350;14.21;35365.67
1725466425.992;350;14.21;35365.67
1725466426.041;350;16.73;38193.87
1725466426.092;350;15.32;36605.67
1725466426.142;350;15.32;36605.67
1725466426.192;350;15.32;36605.67
1725466426.243;350;14.68;35889.46
1725466426.293;350;14.74;35955.00
1725466426.343;350;14.74;35955.00
1725466426.393;350;14.46;35644.07
1725466426.443;350;16.60;38051.07
1725466426.494;350;14.94;36177.80
1725466426.544;350;14.94;36177.80
1725466426.594;350;15.19;36464.73
1725466426.644;350;16.39;37810.13
1725466426.693;350;16.39;37810.13
1725466426.744;350;16.39;37810.13
1725466426.794;350;16.69;38150.67
1725466426.844;350;14.51;35704.67
1725466426.894;350;14.51;35704.67
1725466426.943;350;14.51;35704.67
1725466426.995;350;15.75;37097.87
1725466427.045;350;15.75;37097.87
1725466427.095;350;15.75;37097.87
1725466427.145;350;14.64;35849.33
1725466427.195;350;16.77;38240.87
1725466427.244;350;16.77;38240.87
1725466427.295;350;16.77;38240.87
1725466427.346;350;14.66;35872.07
1725466427.395;350;13.96;35078.87
1725466427.446;350;13.96;35078.87
1725466427.496;350;13.96;35078.87
1725466427.546;350;14.68;35896.40
1725466427.596;350;15.36;36654.87
1725466427.647;350;15.36;36654.87
1725466427.697;350;15.36;36654.87
1725466427.747;350;16.89;38373.33
1725466427.796;350;14.68;35893.54
1725466427.847;350;14.68;35893.54
1725466427.896;350;14.68;35893.54
1725466427.947;350;14.67;35880.67
1725466427.997;350;14.61;35816.80
1725466428.048;350;14.61;35816.80
1725466428.099;350;14.61;35816.80
1725466428.149;350;15.37;36666.00
1725466428.200;350;16.85;38327.20
1725466428.250;350;16.85;38327.20
1725466428.300;350;16.85;38327.20
1725466428.349;350;16.96;38447.27
1725466428.399;350;13.95;35076.40
1725466428.450;350;13.95;35076.40
1725466428.500;350;13.95;35076.40
1725466428.551;350;16.48;37907.93
1725466428.600;350;15.33;36621.60
1725466428.650;350;15.33;36621.60
1725466428.700;350;15.33;36621.60
1725466428.750;350;15.08;36345.67
1725466428.801;350;16.21;37612.20
1725466428.850;350;16.21;37612.20
1725466428.900;350;16.21;37612.20
1725466428.950;350;15.72;37064.13
1725466440.688;350;13.04;34048.07
1725466440.738;350;13.95;35068.27
1725466440.788;350;13.95;35068.27
1725466440.838;350;13.84;34943.20
1725466440.888;350;16.87;38356.54
1725466440.939;350;16.87;38356.54
1725466440.988;350;16.87;38356.54
1725466441.039;350;14.49;35682.27
1725466441.088;350;14.70;35913.67
1725466441.138;350;15.33;36622.40
1725466441.188;350;15.33;36622.40
1725466441.238;350;15.33;36622.40
1725466441.288;350;16.92;38402.73
1725466441.339;350;15.60;36921.80
1725466441.389;350;15.60;36921.80
1725466441.439;350;15.43;36736.33
1725466441.489;350;14.94;36183.27
1725466441.539;350;14.49;35678.54
1725466441.589;350;14.49;35678.54
1725466441.640;350;14.84;36072.00
1725466441.689;350;16.87;38345.93
1725466441.739;350;16.87;38345.93
1725466441.789;350;16.87;38345.93
1725466441.839;350;16.80;38275.54
1725466441.889;350;16.80;38275.54
1725466441.940;350;16.80;38275.54
1725466441.989;350;16.81;38288.87
1725466442.040;350;16.77;38238.73
1725466442.090;350;16.77;38238.73
1725466442.139;350;16.77;38238.73
1725466442.189;350;16.09;37471.67
1725466442.240;350;16.96;38447.87
1725466442.289;350;16.96;38447.87
1725466442.339;350;16.96;38447.87
1725466442.389;350;14.82;36050.40
1725466442.440;350;16.91;38396.33
1725466442.490;350;16.91;38396.33
1725466442.539;350;16.82;38295.73
1725466442.590;350;15.67;36998.13
1725466442.640;350;14.38;35557.60
1725466442.689;350;14.38;35557.60
1725466442.739;350;14.38;35557.60
1725466442.789;350;16.89;38369.93
1725466442.840;350;14.65;35859.46
1725466442.890;350;14.65;35859.46
1725466442.941;350;15.06;36322.27
1725466442.991;350;14.05;35187.20
1725466443.042;350;15.20;36477.07
1725466443.092;350;15.20;36477.07
1725466443.142;350;16.42;37845.20
1725466443.191;350;16.33;37743.07
1725466443.242;350;16.33;37743.07
1725466443.292;350;16.33;37743.07
1725466443.342;350;16.96;38454.27
1725466443.393;350;16.88;38364.60
1725466443.442;350;16.88;38364.60
1725466443.493;350;13.84;34942.00
1725466443.543;350;15.12;36380.33
1725466443.593;350;15.12;36380.33
1725466443.642;350;15.12;36380.33
1725466443.693;350;16.87;38350.73
1725466443.743;350;16.96;38446.80
1725466443.793;350;16.96;38446.80
1725466443.843;350;16.96;38446.80
1725466443.894;350;16.88;38357.60
1725466443.944;350;13.86;34970.80
1725466443.993;350;13.86;34970.80
1725466444.045;350;13.86;34970.80
1725466444.095;350;16.13;37520.73
1725466444.144;350;14.52;35705.87
1725466444.194;350;14.52;35705.87
1725466444.245;350;14.52;35705.87
1725466444.295;350;15.34;36629.80
1725466444.345;350;15.78;37121.40
1725466444.395;350;15.78;37121.40
1725466444.445;350;15.78;37121.40
1725466444.495;350;16.03;37410.67
1725466444.545;350;14.19;35343.27
1725466444.595;350;14.19;35343.27
1725466444.646;350;14.19;35343.27
1725466444.695;350;16.31;37721.40
1725466444.745;350;16.73;38198.93
1725466444.795;350;16.73;38198.93
1725466444.846;350;16.73;38198.93
1725466444.895;350;15.30;36586.73
1725466444.946;350;16.96;38449.46
1725466444.995;350;16.96;38449.46
1725466445.045;350;16.96;38449.46
1725466445.095;350;16.97;38459.60
1725466445.145;350;16.96;38454.27
1725466445.196;350;16.40;37826.07
1725466445.246;350;16.40;37826.07
1725466445.297;350;16.40;37826.07
1725466445.347;350;16.42;37840.93
1725466445.397;350;16.11;37494.33
1725466445.446;350;16.94;38430.46
1725466445.497;350;16.94;38430.46
1725466445.546;350;16.93;38417.93
1725466445.597;350;16.98;38471.07
1725466457.381;350;12.92;33912.27
1725466457.433;350;12.92;33912.27
1725466457.483;350;12.92;33912.27
1725466457.533;350;16.14;37536.20
1725466457.582;350;16.14;37536.20
1725466457.633;350;16.14;37536.20
1725466457.683;350;16.14;37536.27
1725466457.733;350;16.14;37536.27
1725466457.784;350;16.14;37536.27
1725466457.834;350;16.85;38330.80
1725466457.883;350;15.01;36266.40
1725466457.934;350;15.01;36266.40
1725466457.985;350;15.01;36266.40
1725466458.035;350;16.70;38156.80
1725466458.085;350;15.93;37297.13
1725466458.135;350;15.93;37297.13
1725466458.185;350;15.93;37297.13
1725466458.234;350;14.93;36167.27
1725466458.285;350;15.22;36498.67
1725466458.335;350;15.22;36498.67
1725466458.385;350;15.22;36498.67
1725466458.434;350;16.17;37560.27
1725466458.486;350;15.34;36633.20
1725466458.536;350;15.34;36633.20
1725466458.586;350;14.67;35878.13
1725466458.636;350;16.49;37926.07
1725466458.686;350;16.49;37926.07
1725466458.736;350;16.49;37926.07
1725466458.786;350;16.88;38367.27
1725466458.837;350;17.00;38497.00
1725466458.887;350;17.00;38497.00
1725466458.936;350;15.55;36864.93
1725466458.987;350;14.89;36130.40
1725466459.038;350;14.89;36130.40
1725466459.088;350;14.89;36130.40
1725466459.138;350;14.62;35824.07
1725466459.189;350;14.62;35824.07
1725466459.239;350;14.62;35824.07
1725466459.289;350;16.24;37643.80
1725466459.339;350;15.99;37357.07
1725466459.391;350;15.99;37357.07
1725466459.442;350;16.21;37604.20
1725466459.491;350;16.67;38125.27
1725466459.541;350;16.67;38125.27
1725466459.592;350;16.67;38125.27
1725466459.643;350;15.10;36367.00
1725466459.692;350;17.00;38497.00
1725466459.744;350;17.00;38497.00
1725466459.794;350;17.00;38497.00
1725466459.843;350;14.12;35263.33
1725466459.894;350;16.91;38396.87
1725466459.944;350;16.91;38396.87
1725466459.993;350;16.91;38396.87
1725466460.044;350;15.00;36250.13
1725466460.095;350;15.00;36250.13
1725466460.145;350;15.00;36250.13
1725466460.196;350;16.97;38460.13
1725466460.245;350;16.78;38245.07
1725466460.295;350;16.78;38245.07
1725466460.346;350;16.78;38245.07
1725466460.396;350;16.96;38448.93
1725466460.446;350;16.96;38448.93
1725466460.496;350;16.96;38448.93
1725466460.545;350;16.30;37705.27
1725466460.596;350;16.78;38246.40
1725466460.646;350;16.78;38246.40
1725466460.696;350;17.00;38497.00
1725466460.746;350;14.43;35612.27
1725466460.797;350;14.43;35612.27
1725466460.847;350;14.43;35612.27
1725466460.897;350;16.96;38453.20
1725466460.946;350;16.60;38050.27
1725466460.997;350;16.60;38050.27
1725466461.047;350;16.60;38050.27
1725466461.098;350;16.04;37413.54
1725466461.149;350;16.69;38147.20
1725466461.198;350;16.69;38147.20
1725466461.249;350;16.69;38147.20
1725466461.299;350;16.95;38437.13
1725466461.350;350;14.96;36208.46
1725466461.399;350;14.96;36208.46
1725466461.450;350;14.96;36208.46
1725466461.499;350;15.99;37362.20
1725466461.550;350;17.00;38497.00
1725466461.599;350;17.00;38497.00
1725466461.650;350;17.00;38497.00
1725466461.700;350;14.78;36004.60
1725466461.750;350;16.21;37613.46
1725466461.800;350;16.21;37613.46
1725466461.850;350;16.21;37613.46
1725466461.900;350;16.94;38431.40
1725466461.949;350;16.66;38111.54
