UnixTimestamp;Microseconds;MilliAmpere;BaseValue
1740142891.205;300;17.85;36391.20
1740142891.253;300;17.85;36391.20
1740142891.303;300;19.09;38237.20
1740142891.354;300;17.77;36273.20
1740142891.403;300;17.77;36273.20
1740142891.454;300;16.73;34735.46
1740142891.503;300;16.73;34735.46
1740142891.553;300;16.73;34735.46
1740142891.604;300;21.71;42112.00
1740142891.654;300;21.71;42112.00
1740142891.703;300;21.13;41255.27
1740142891.754;300;21.22;41379.87
1740142891.804;300;21.22;41379.87
1740142891.854;300;21.83;42289.67
1740142891.903;300;20.25;39955.00
1740142891.954;300;20.25;39955.00
1740142892.254;300;18.02;36643.73
1740142892.304;300;18.02;36643.73
1740142892.354;300;18.40;37207.46
1740142892.404;300;19.76;39227.33
1740142892.455;300;19.76;39227.33
1740142892.504;300;16.92;35023.87
1740142892.554;300;16.92;35023.87
1740142892.604;300;19.57;38938.33
1740142892.655;300;19.57;38938.33
1740142892.708;300;19.57;38938.33
1740142892.755;300;21.55;41870.73
1740142892.805;300;21.55;41870.73
1740142892.855;300;21.55;41870.73
1740142892.905;300;17.02;35163.73
1740142892.955;300;17.02;35163.73
1740142893.005;300;17.11;35303.73
1740142893.055;300;17.11;35303.73
1740142893.105;300;17.11;35303.73
1740142893.155;300;18.75;37732.87
1740142893.205;300;18.75;37732.87
1740142893.256;300;17.99;36602.67
1740142893.306;300;19.81;39303.27
1740142893.356;300;19.81;39303.27
1740142893.406;300;17.58;35996.13
1740142893.455;300;17.58;35996.13
1740142893.505;300;17.16;35368.27
1740142893.556;300;17.16;35368.27
1740142893.605;300;18.31;37080.87
1740142893.656;300;21.62;41976.87
1740142893.706;300;21.62;41976.87
1740142893.756;300;20.20;39871.13
1740142893.806;300;21.04;41117.80
1740142893.856;300;21.04;41117.80
1740142894.006;300;16.86;34928.80
1740142894.056;300;17.13;35333.73
1740142894.106;300;17.13;35333.73
1740142894.156;300;21.60;41951.33
1740142894.206;300;21.60;41951.33
1740142894.256;300;21.60;41951.33
1740142894.306;300;21.37;41614.27
1740142894.356;300;21.37;41614.27
1740142894.406;300;17.47;35836.46
1740142894.457;300;17.47;35836.46
1740142894.506;300;17.47;35836.46
1740142894.557;300;17.07;35236.67
1740142894.607;300;17.07;35236.67
1740142894.657;300;17.26;35519.73
1740142894.707;300;21.35;41579.20
1740142894.758;300;21.35;41579.20
1740142894.808;300;17.88;36435.54
1740142894.857;300;17.88;36435.54
1740142894.907;300;21.42;41680.07
1740142894.958;300;19.69;39120.27
1740142895.015;300;19.69;39120.27
1740142895.058;300;21.06;41149.13
1740142895.107;300;19.87;39392.13
1740142895.158;300;19.87;39392.13
1740142895.308;300;21.32;41530.54
1740142895.358;300;17.76;36269.87
1740142895.408;300;17.76;36269.87
1740142895.458;300;16.72;34725.33
1740142895.508;300;16.72;34725.33
1740142895.558;300;16.72;34725.33
1740142895.608;300;17.49;35865.87
1740142895.657;300;17.49;35865.87
1740142905.298;300;16.86;34934.67
1740142905.347;300;16.86;34934.67
1740142905.396;300;17.52;35908.54
1740142905.448;300;17.52;35908.54
1740142905.497;300;17.52;35908.54
1740142905.547;300;16.88;34962.67
1740142905.598;300;16.88;34962.67
1740142905.798;300;16.80;34839.07
1740142905.848;300;16.80;34839.07
1740142905.898;300;21.46;41747.87
1740142905.948;300;21.46;41747.87
1740142905.998;300;21.46;41747.87
1740142906.048;300;19.74;39194.67
1740142906.098;300;19.74;39194.67
1740142906.148;300;20.87;40866.46
1740142906.198;300;17.66;36111.46
1740142906.248;300;17.66;36111.46
1740142906.404;300;21.03;41099.67
1740142906.451;300;17.95;36540.54
1740142906.501;300;17.95;36540.54
1740142906.551;300;19.81;39298.33
1740142906.601;300;19.31;38555.27
1740142906.651;300;19.31;38555.27
1740142906.701;300;16.76;34777.54
1740142906.751;300;16.76;34777.54
1740142906.801;300;18.69;37634.27
1740142906.852;300;19.02;38121.07
1740142906.902;300;19.02;38121.07
1740142906.952;300;20.43;40223.20
1740142907.002;300;20.43;40223.20
1740142907.052;300;21.37;41602.33
1740142907.101;300;20.67;40569.80
1740142907.152;300;20.67;40569.80
1740142907.202;300;20.20;39882.27
1740142907.252;300;20.20;39882.27
1740142907.302;300;21.04;41116.93
1740142907.352;300;21.04;41116.93
1740142907.402;300;21.04;41116.93
1740142907.452;300;21.84;42307.07
1740142907.502;300;21.84;42307.07
1740142907.553;300;21.20;41361.87
1740142907.603;300;19.18;38366.07
1740142907.652;300;19.18;38366.07
1740142907.702;300;19.93;39474.93
1740142907.752;300;19.93;39474.93
1740142907.802;300;19.93;39474.93
1740142907.853;300;21.02;41095.40
1740142907.903;300;21.02;41095.40
1740142907.953;300;21.02;41095.40
1740142908.003;300;19.89;39414.40
1740142908.053;300;19.89;39414.40
1740142908.103;300;21.62;41985.54
1740142908.153;300;21.62;41985.54
1740142908.203;300;17.35;35655.33
1740142908.253;300;17.96;36556.33
1740142908.303;300;17.96;36556.33
1740142908.353;300;18.43;37248.07
1740142908.403;300;18.43;37248.07
1740142908.453;300;18.43;37248.07
1740142908.504;300;17.72;36206.67
1740142908.553;300;17.72;36206.67
1740142908.603;300;21.43;41702.60
1740142908.654;300;21.43;41702.60
1740142908.703;300;21.43;41702.60
1740142908.753;300;21.24;41409.07
1740142908.803;300;21.24;41409.07
1740142908.853;300;21.69;42086.73
1740142908.903;300;21.60;41946.67
1740142908.954;300;21.60;41946.67
1740142909.003;300;21.55;41882.07
1740142909.054;300;21.55;41882.07
1740142909.154;300;17.14;35342.46
1740142909.204;300;17.14;35342.46
1740142909.255;300;17.34;35646.73
1740142909.305;300;17.67;36131.20
1740142909.354;300;17.67;36131.20
1740142909.405;300;21.29;41485.60
1740142909.455;300;18.28;37040.00
1740142909.505;300;18.28;37040.00
1740142919.011;300;17.69;36160.46
1740142919.061;300;17.69;36160.46
1740142919.111;300;17.20;35434.54
1740142919.161;300;20.75;40686.93
1740142919.211;300;20.75;40686.93
1740142919.261;300;19.93;39470.27
1740142919.311;300;19.93;39470.27
1740142919.362;300;19.46;38781.80
1740142919.411;300;20.94;40977.60
1740142919.462;300;20.94;40977.60
1740142919.512;300;20.80;40763.40
1740142919.562;300;20.80;40763.40
1740142919.611;300;17.15;35355.46
1740142919.661;300;17.56;35973.87
1740142919.711;300;17.56;35973.87
1740142919.761;300;17.75;36250.67
1740142919.812;300;17.75;36250.67
1740142919.861;300;17.88;36442.13
1740142920.012;300;17.45;35799.93
1740142920.062;300;17.45;35799.93
1740142920.112;300;17.44;35789.00
1740142920.161;300;21.72;42125.73
1740142920.211;300;21.72;42125.73
1740142920.262;300;19.67;39091.73
1740142920.311;300;19.67;39091.73
1740142920.361;300;19.67;39091.73
1740142920.411;300;20.09;39714.20
1740142920.461;300;20.09;39714.20
1740142920.511;300;17.89;36454.00
1740142920.561;300;17.89;36454.00
1740142920.611;300;17.61;36033.20
1740142920.662;300;16.92;35023.46
1740142920.711;300;16.92;35023.46
1740142920.761;300;20.40;40178.46
1740142920.812;300;20.40;40178.46
1740142920.861;300;20.40;40178.46
1740142920.911;300;20.83;40813.54
1740142920.961;300;20.83;40813.54
1740142921.011;300;18.97;38059.07
1740142921.061;300;18.97;38059.07
1740142921.111;300;17.01;35153.87
1740142921.161;300;20.29;40008.07
1740142921.211;300;20.29;40008.07
1740142921.266;300;18.24;36966.73
1740142921.313;300;17.80;36328.13
1740142921.363;300;17.80;36328.13
1740142921.413;300;20.83;40812.73
1740142921.463;300;20.83;40812.73
1740142921.514;300;20.70;40615.60
1740142921.564;300;21.14;41264.46
1740142921.614;300;21.14;41264.46
1740142921.665;300;17.12;35311.87
1740142921.715;300;17.12;35311.87
1740142921.764;300;18.08;36740.80
1740142921.814;300;18.65;37580.07
1740142921.865;300;18.65;37580.07
1740142922.014;300;19.86;39378.80
1740142922.065;300;18.59;37493.80
1740142922.115;300;18.59;37493.80
1740142922.265;300;16.79;34819.46
1740142922.316;300;18.16;36858.20
1740142922.365;300;18.16;36858.20
1740142922.415;300;16.75;34768.54
1740142922.466;300;16.75;34768.54
1740142922.565;300;19.87;39382.60
1740142922.615;300;19.87;39382.60
1740142922.665;300;17.28;35551.33
1740142922.715;300;17.28;35551.33
1740142922.765;300;17.28;35551.33
1740142922.815;300;20.59;40455.33
1740142922.866;300;20.59;40455.33
1740142922.915;300;21.20;41363.27
1740142922.965;300;21.20;41363.27
1740142923.015;300;21.20;41363.27
1740142923.317;300;17.45;35804.54
1740142923.366;300;17.45;35804.54
1740142923.416;300;17.23;35483.46
1740142923.466;300;17.23;35483.46
1740142923.516;300;16.89;34973.87
1740143074.079;76;30.00;35081.07
1740143074.129;78;30.00;35877.87
1740143074.178;78;30.00;35877.87
1740143074.228;94;30.00;41072.00
1740143074.279;97;30.00;41970.00
1740143074.329;97;30.00;41970.00
1740143074.378;97;30.00;42099.87
1740143074.429;97;30.00;42099.87
1740143074.479;76;30.00;35273.93
1740143074.529;87;30.00;38678.67
1740143074.578;87;30.00;38678.67
1740143074.629;83;30.00;37532.20
1740143074.679;83;30.00;37532.20
1740143074.729;92;30.00;40408.07
1740143074.779;90;30.00;39881.00
1740143074.829;90;30.00;39881.00
1740143074.879;83;30.00;37546.80
1740143074.929;83;30.00;37546.80
1740143074.979;84;30.00;37901.73
1740143075.029;84;30.00;37901.73
1740143075.080;88;30.00;38971.13
1740143075.130;89;30.00;39589.93
1740143075.180;89;30.00;39589.93
1740143075.230;79;30.00;36085.60
1740143075.280;77;30.00;35490.13
1740143075.330;77;30.00;35490.13
1740143075.380;89;30.00;39555.20
1740143075.430;89;30.00;39555.20
1740143075.487;82;30.00;37327.93
1740143075.531;78;30.00;35885.73
1740143075.580;78;30.00;35885.73
1740143075.631;84;30.00;37870.00
1740143075.680;84;30.00;37870.00
1740143075.730;84;30.00;37870.00
1740143075.780;95;30.00;41330.27
1740143075.830;95;30.00;41330.27
1740143075.880;75;30.00;34970.13
1740143075.930;75;30.00;34970.13
1740143075.980;79;30.00;36250.40
1740143076.030;83;30.00;37513.40
1740143076.080;83;30.00;37513.40
1740143076.131;98;30.00;42311.54
1740143076.180;98;30.00;42311.54
1740143076.230;98;30.00;42311.54
1740143076.281;89;30.00;39567.40
1740143076.331;89;30.00;39567.40
1740143076.381;88;30.00;39077.33
1740143076.431;88;30.00;39077.33
1740143076.481;77;30.00;35526.67
1740143076.531;75;30.00;34938.13
1740143076.580;75;30.00;34938.13
1740143076.631;82;30.00;37189.13
1740143076.680;82;30.00;37189.13
1740143076.731;82;30.00;37145.07
1740143076.780;83;30.00;37505.73
1740143076.831;83;30.00;37505.73
1740143076.882;80;30.00;36392.67
1740143076.930;81;30.00;36763.60
1740143076.981;81;30.00;36763.60
1740143077.030;93;30.00;40742.46
1740143077.080;93;30.00;40742.46
1740143077.131;93;30.00;40742.46
1740143077.181;79;30.00;36270.40
1740143077.231;79;30.00;36270.40
1740143077.280;88;30.00;39167.93
1740143077.331;88;30.00;39167.93
1740143077.381;88;30.00;39020.73
1740143077.431;82;30.00;37067.67
1740143077.481;82;30.00;37067.67
1740143077.531;78;30.00;35831.33
1740143077.581;78;30.00;35831.33
1740143077.632;82;30.00;37317.27
1740143077.681;84;30.00;37809.20
1740143077.732;84;30.00;37809.20
1740143077.783;85;30.00;38148.87
1740143077.833;85;30.00;38148.87
1740143077.883;82;30.00;37227.27
1740143077.933;82;30.00;37227.27
1740143077.983;82;30.00;37227.27
1740143078.033;87;30.00;38640.27
1740143078.083;87;30.00;38640.27
1740143078.133;87;30.00;38640.27
1740143078.183;97;30.00;42153.40
1740143078.233;97;30.00;42153.40
1740143078.283;85;30.00;38007.80
1740143078.333;85;30.00;38007.80
1740143078.383;85;30.00;38007.80
1740143078.433;84;30.00;37811.80
1740143087.393;76;30.00;35136.00
1740143087.444;76;30.00;35136.00
1740143087.494;76;30.00;35136.00
1740143087.545;88;30.00;39076.00
1740143087.594;88;30.00;39076.00
1740143087.795;83;30.00;37443.54
1740143087.844;83;30.00;37443.54
1740143087.894;75;30.00;34877.60
1740143087.945;75;30.00;34877.60
1740143088.045;88;30.00;39270.67
1740143088.095;88;30.00;39270.67
1740143088.144;76;30.00;35159.46
1740143088.195;80;30.00;36418.80
1740143088.245;80;30.00;36418.80
1740143088.296;86;30.00;38315.80
1740143088.346;86;30.00;38315.80
1740143088.395;88;30.00;38959.54
1740143088.446;88;30.00;38959.54
1740143088.496;88;30.00;38959.54
1740143088.546;96;30.00;41680.20
1740143088.596;96;30.00;41680.20
1740143088.647;91;30.00;40009.93
1740143088.696;84;30.00;37843.67
1740143088.746;84;30.00;37843.67
1740143088.796;92;30.00;40502.93
1740143088.846;92;30.00;40502.93
1740143088.897;83;30.00;37544.87
1740143088.947;83;30.00;37544.87
1740143088.996;83;30.00;37544.87
1740143089.046;88;30.00;39224.07
1740143089.097;88;30.00;39224.07
1740143089.148;86;30.00;38551.27
1740143089.197;76;30.00;35140.27
1740143089.247;76;30.00;35140.27
1740143089.297;75;30.00;34893.07
1740143089.348;75;30.00;34893.07
1740143089.398;84;30.00;37839.54
1740143089.547;76;30.00;35057.87
1740143089.597;75;30.00;34936.27
1740143089.647;75;30.00;34936.27
1740143089.698;75;30.00;34980.27
1740143089.747;75;30.00;34980.27
1740143089.797;91;30.00;39953.67
1740143089.848;91;30.00;39953.67
1740143089.898;91;30.00;39953.67
1740143089.949;82;30.00;37297.40
1740143089.998;82;30.00;37297.40
1740143090.048;88;30.00;39247.67
1740143090.098;84;30.00;37924.80
1740143090.148;84;30.00;37924.80
1740143090.199;95;30.00;41412.93
1740143090.249;95;30.00;41412.93
1740143090.299;98;30.00;42382.27
1740143090.349;95;30.00;41295.67
1740143090.399;95;30.00;41295.67
1740143090.600;80;30.00;36374.67
1740143090.649;80;30.00;36374.67
1740143090.699;89;30.00;39321.60
1740143090.750;89;30.00;39321.60
1740143090.800;75;30.00;35000.20
1740143090.850;79;30.00;36347.54
1740143090.900;79;30.00;36347.54
1740143090.949;92;30.00;40580.67
1740143091.000;92;30.00;40580.67
1740143091.050;92;30.00;40580.67
1740143091.100;92;30.00;40480.40
1740143091.150;92;30.00;40480.40
1740143091.200;83;30.00;37620.27
1740143091.250;83;30.00;37620.27
1740143091.299;87;30.00;38713.40
1740143091.450;76;30.00;35351.60
1740143091.499;76;30.00;35351.60
1740143091.550;76;30.00;35351.60
1740143091.600;81;30.00;36916.93
1740143091.650;81;30.00;36916.93
1740143091.700;75;30.00;34816.40
1740143091.751;80;30.00;36673.93
1740143091.800;80;30.00;36673.93
1740143091.851;77;30.00;35389.93
1740143091.901;77;30.00;35389.93
1740143091.951;77;30.00;35671.40
1740143092.351;80;30.00;36662.20
1740143101.120;76;30.00;35282.00
1740143101.170;76;30.00;35282.00
1740143101.220;79;30.00;36172.00
1740143101.271;83;30.00;37489.20
1740143101.320;83;30.00;37489.20
1740143101.471;79;30.00;36048.27
1740143101.521;79;30.00;36048.27
1740143101.571;88;30.00;39211.80
1740143101.620;88;30.00;39211.80
1740143101.671;78;30.00;35927.13
1740143101.721;82;30.00;37134.13
1740143101.772;82;30.00;37134.13
1740143101.822;76;30.00;35309.87
1740143101.871;76;30.00;35309.87
1740143101.922;90;30.00;39808.93
1740143101.972;90;30.00;39808.93
1740143102.021;85;30.00;38097.73
1740143102.072;85;30.00;38097.73
1740143102.222;76;30.00;35133.20
1740143102.272;76;30.00;35319.46
1740143102.321;76;30.00;35319.46
1740143102.371;75;30.00;34749.33
1740143102.421;77;30.00;35542.67
1740143102.471;77;30.00;35542.67
1740143102.522;82;30.00;37164.87
1740143102.572;82;30.00;37164.87
1740143102.672;77;30.00;35490.73
1740143102.721;77;30.00;35490.73
1740143102.772;78;30.00;35782.27
1740143102.822;78;30.00;35782.27
1740143102.872;86;30.00;38595.27
1740143102.922;86;30.00;38595.27
1740143102.972;77;30.00;35421.73
1740143103.022;77;30.00;35629.67
1740143103.072;77;30.00;35529.40
1740143103.122;84;30.00;37936.60
1740143103.172;84;30.00;37936.60
1740143103.222;93;30.00;40762.80
1740143103.271;93;30.00;40762.80
1740143103.321;98;30.00;42304.00
1740143103.372;98;30.00;42304.00
1740143103.422;83;30.00;37607.27
1740143103.472;83;30.00;37607.27
1740143103.521;91;30.00;40045.27
1740143103.572;83;30.00;37444.20
1740143103.622;78;30.00;35714.27
1740143103.672;95;30.00;41487.60
1740143103.721;95;30.00;41487.60
1740143103.872;77;30.00;35394.54
1740143103.922;77;30.00;35394.54
1740143103.972;75;30.00;34865.87
1740143104.022;80;30.00;36422.13
1740143104.072;80;30.00;36422.13
1740143104.122;82;30.00;37051.40
1740143104.172;82;30.00;37051.40
1740143104.222;94;30.00;41017.33
1740143104.272;94;30.00;41017.33
1740143104.322;81;30.00;36728.07
1740143104.372;81;30.00;36728.07
1740143104.421;76;30.00;35288.40
1740143104.472;82;30.00;37309.13
1740143104.522;82;30.00;37309.13
1740143104.573;87;30.00;38863.13
1740143104.623;87;30.00;38863.13
1740143104.673;80;30.00;36454.67
1740143104.722;80;30.00;36454.67
1740143104.773;94;30.00;40915.60
1740143104.823;92;30.00;40262.07
1740143104.873;92;30.00;40262.07
1740143104.923;91;30.00;40114.54
1740143104.973;91;30.00;40114.54
1740143105.023;87;30.00;38911.07
1740143105.073;87;30.00;38911.07
1740143105.324;79;30.00;36288.54
1740143229.113;76;50.00;35335.20
1740143229.163;76;50.00;35335.20
1740143229.214;76;50.00;35335.20
1740143229.263;86;50.00;38384.80
1740143229.313;86;50.00;38384.80
1740143229.364;97;50.00;41988.87
1740143229.413;97;50.00;41988.87
1740143229.463;90;50.00;39914.80
1740143229.513;75;50.00;34805.87
1740143229.564;75;50.00;34805.87
1740143229.613;82;50.00;37150.13
1740143229.663;82;50.00;37150.13
1740143229.714;84;50.00;37775.40
1740143230.015;77;50.00;35409.60
1740143230.065;77;50.00;35409.60
1740143230.116;75;50.00;34794.67
1740143230.165;75;50.00;34794.67
1740143230.215;88;50.00;38971.60
1740143230.265;88;50.00;38976.07
1740143230.315;88;50.00;38976.07
1740143230.465;87;50.00;38941.33
1740143230.515;84;50.00;37675.54
1740143230.565;84;50.00;37675.54
1740143230.865;81;50.00;36813.93
1740143230.916;81;50.00;36813.93
1740143230.966;81;50.00;36813.93
1740143231.115;90;50.00;39713.60
1740143231.166;81;50.00;36770.40
1740143231.216;81;50.00;36770.40
1740143231.465;75;50.00;35018.13
1740143231.515;79;50.00;36297.13
1740143231.565;79;50.00;36297.13
1740143231.615;96;50.00;41801.33
1740143231.665;90;50.00;39776.33
1740143231.715;90;50.00;39776.33
1740143231.965;85;50.00;38184.93
1740143232.015;78;50.00;35909.73
1740143232.065;78;50.00;35909.73
1740143232.116;92;50.00;40349.73
1740143232.165;85;50.00;38151.13
1740143232.216;85;50.00;38151.13
1740143232.266;95;50.00;41277.33
1740143232.316;95;50.00;41277.33
1740143232.366;76;50.00;35239.87
1740143232.415;76;50.00;35239.87
1740143232.466;76;50.00;35284.93
1740143232.515;85;50.00;38188.33
1740143232.565;85;50.00;38188.33
1740143232.615;78;50.00;35948.80
1740143232.666;78;50.00;35948.80
1740143232.716;78;50.00;35948.80
1740143232.766;78;50.00;35836.00
1740143232.816;78;50.00;35836.00
1740143232.866;89;50.00;39578.07
1740143232.917;89;50.00;39578.07
1740143232.967;89;50.00;39444.20
1740143233.268;76;50.00;35200.46
1740143233.318;76;50.00;35200.46
1740143233.369;75;50.00;34726.54
1740143233.418;75;50.00;34726.54
1740143233.469;77;50.00;35642.00
1740143233.520;94;50.00;41130.46
1740143233.569;94;50.00;41130.46
1740143233.619;84;50.00;37829.80
1740143233.669;84;50.00;37829.80
1740143233.720;84;50.00;37829.80
1740143242.670;80;50.00;36381.20
1740143242.720;80;50.00;36381.20
1740143242.771;96;50.00;41755.93
1740143242.821;96;50.00;41755.93
1740143242.871;96;50.00;41747.20
1740143242.921;96;50.00;41747.20
1740143242.971;95;50.00;41436.54
1740143243.022;95;50.00;41436.54
1740143243.271;80;50.00;36597.07
1740143243.321;80;50.00;36597.07
1740143243.371;79;50.00;36298.60
1740143243.522;86;50.00;38505.07
1740143243.571;80;50.00;36388.80
1740143243.622;80;50.00;36388.80
1740143244.072;75;50.00;34824.13
1740143244.122;75;50.00;34824.13
1740143244.272;75;50.00;34974.54
1740143244.322;75;50.00;34974.54
1740143244.471;83;50.00;37459.54
1740143244.873;75;50.00;34831.46
1740143244.923;75;50.00;34831.46
1740143244.973;75;50.00;34811.20
1740143245.023;75;50.00;34811.20
1740143245.173;75;50.00;34990.00
1740143245.224;75;50.00;34990.00
1740143245.273;83;50.00;37635.67
1740143245.323;83;50.00;37635.67
1740143245.373;89;50.00;39538.46
1740143245.423;89;50.00;39538.46
1740143245.473;89;50.00;39538.46
1740143245.524;89;50.00;39315.87
1740143245.574;89;50.00;39315.87
1740143245.624;78;50.00;35760.60
1740143245.674;78;50.00;35760.60
1740143245.724;93;50.00;40657.87
1740143245.874;81;50.00;36723.20
1740143245.924;81;50.00;36723.20
1740143245.974;92;50.00;40503.40
1740143246.024;92;50.00;40503.40
1740143246.074;96;50.00;41582.00
1740143246.124;96;50.00;41582.00
1740143246.174;94;50.00;41153.40
1740143246.225;94;50.00;41153.40
1740143246.275;94;50.00;41153.40
1740143246.424;82;50.00;37145.93
1740143255.001;78;50.00;35868.07
1740143255.052;78;50.00;35868.07
1740143255.101;91;50.00;40070.00
1740143255.152;91;50.00;40070.00
1740143255.352;83;50.00;37648.33
1740143255.401;83;50.00;37648.33
1740143255.453;97;50.00;42103.20
1740143255.503;97;50.00;42103.20
1740143255.553;75;50.00;35045.87
1740143255.603;75;50.00;35045.87
1740143255.653;89;50.00;39312.33
1740143255.703;89;50.00;39312.33
1740143255.753;83;50.00;37614.07
1740143255.803;83;50.00;37614.07
1740143255.853;76;50.00;35145.87
1740143256.004;79;50.00;36177.73
1740143256.054;79;50.00;36177.73
1740143256.103;91;50.00;40158.00
1740143256.153;91;50.00;40158.00
1740143256.254;96;50.00;41677.60
1740143256.304;96;50.00;41677.60
1740143256.354;77;50.00;35416.00
1740143256.404;77;50.00;35416.00
1740143256.453;81;50.00;36892.67
1740143256.504;81;50.00;36892.67
1740143256.554;89;50.00;39376.13
1740143256.604;89;50.00;39376.13
1740143256.654;79;50.00;36216.54
1740143256.904;77;50.00;35481.00
1740143256.954;77;50.00;35481.00
1740143257.004;75;50.00;34851.46
1740143257.054;75;50.00;34851.46
1740143257.104;85;50.00;38132.80
1740143257.154;85;50.00;38132.80
1740143257.204;94;50.00;41017.60
1740143257.255;92;50.00;40370.33
1740143257.304;92;50.00;40370.33
1740143257.354;81;50.00;36899.07
1740143257.404;81;50.00;36899.07
1740143257.654;79;50.00;36143.27
1740143257.704;79;50.00;36143.27
1740143257.754;77;50.00;35522.13
1740143257.804;81;50.00;36689.20
1740143257.854;81;50.00;36689.20
1740143257.904;79;50.00;36335.54
1740143257.954;79;50.00;36335.54
1740143258.004;87;50.00;38884.40
1740143258.054;87;50.00;38884.40
1740143258.204;78;50.00;35838.13
1740143258.654;76;50.00;35147.20
1740143258.704;77;50.00;35648.00
1740143258.754;77;50.00;35648.00
1740143392.474;76;10.00;35112.67
1740143392.524;82;10.00;37131.54
1740143392.574;82;10.00;37131.54
1740143392.624;81;10.00;36764.80
1740143392.674;81;10.00;36764.80
1740143392.775;80;10.00;36644.80
1740143392.824;80;10.00;36644.80
1740143392.875;76;10.00;35148.60
1740143392.925;76;10.00;35148.60
1740143392.974;79;10.00;36315.13
1740143393.024;81;10.00;36794.67
1740143393.074;81;10.00;36794.67
1740143393.125;75;10.00;34774.80
1740143393.175;75;10.00;34774.80
1740143393.226;78;10.00;35719.80
1740143393.277;82;10.00;37142.73
1740143393.327;82;10.00;37142.73
1740143393.377;82;10.00;37019.00
1740143393.427;83;10.00;37521.13
1740143393.477;83;10.00;37521.13
1740143393.527;80;10.00;36509.46
1740143393.578;80;10.00;36509.46
1740143393.628;83;10.00;37620.40
1740143393.677;84;10.00;37886.73
1740143393.727;84;10.00;37886.73
1740143393.778;75;10.00;34818.13
1740143393.827;75;10.00;34818.13
1740143393.877;75;10.00;34818.13
1740143393.927;79;10.00;36305.73
1740143393.977;79;10.00;36305.73
1740143394.027;81;10.00;36971.67
1740143394.077;81;10.00;36971.67
1740143394.127;82;10.00;37208.80
1740143394.177;82;10.00;37208.80
1740143394.227;82;10.00;37208.80
1740143394.277;87;10.00;38758.40
1740143394.328;87;10.00;38758.40
1740143394.377;87;10.00;38758.40
1740143394.428;84;10.00;37715.40
1740143394.478;84;10.00;37715.40
1740143394.627;77;10.00;35380.46
1740143394.677;78;10.00;35986.73
1740143394.727;78;10.00;35986.73
1740143394.777;79;10.00;36027.33
1740143394.828;77;10.00;35465.46
1740143394.877;77;10.00;35465.46
1740143394.928;84;10.00;37834.67
1740143394.978;84;10.00;37834.67
1740143395.028;79;10.00;36320.80
1740143395.078;79;10.00;36320.80
1740143395.128;79;10.00;36320.80
1740143395.178;83;10.00;37433.46
1740143395.228;83;10.00;37433.46
1740143395.278;75;10.00;35020.27
1740143395.328;79;10.00;36163.00
1740143395.378;79;10.00;36163.00
1740143395.428;78;10.00;35861.33
1740143395.478;78;10.00;35861.33
1740143395.528;76;10.00;35172.80
1740143395.578;80;10.00;36351.73
1740143395.628;80;10.00;36351.73
1740143395.678;86;10.00;38437.93
1740143395.729;86;10.00;38437.93
1740143395.778;86;10.00;38437.93
1740143395.828;81;10.00;36725.73
1740143395.878;81;10.00;36725.73
1740143395.928;87;10.00;38714.27
1740143395.978;87;10.00;38714.27
1740143396.028;78;10.00;35894.67
1740143396.078;83;10.00;37466.60
1740143396.128;83;10.00;37466.60
1740143396.178;85;10.00;38028.93
1740143396.228;85;10.00;38028.93
1740143396.278;85;10.00;38028.93
1740143396.328;83;10.00;37571.54
1740143396.378;83;10.00;37571.54
1740143396.430;79;10.00;36153.46
1740143396.478;79;10.00;36253.87
1740143396.528;79;10.00;36253.87
1740143396.578;83;10.00;37372.80
1740143396.628;83;10.00;37372.80
1740143396.678;83;10.00;37372.80
1740143396.728;81;10.00;36884.00
1740143396.778;81;10.00;36884.00
1740143396.828;79;10.00;36327.80
1740143396.878;79;10.00;36327.80
1740143396.928;79;10.00;36215.20
1740143396.978;86;10.00;38553.93
1740143397.028;86;10.00;38553.93
1740143397.079;89;10.00;39362.67
1740143406.033;75;10.00;34796.46
1740143406.083;75;10.00;34796.46
1740143406.133;75;10.00;34796.46
1740143406.183;75;10.00;34812.93
1740143406.233;75;10.00;34812.93
1740143406.283;77;10.00;35679.33
1740143406.333;78;10.00;35965.20
1740143406.384;78;10.00;35965.20
1740143406.434;81;10.00;36827.54
1740143406.484;81;10.00;36827.54
1740143406.534;82;10.00;37239.33
1740143406.585;82;10.00;37239.33
1740143406.635;82;10.00;37169.13
1740143406.685;82;10.00;37100.93
1740143406.734;82;10.00;37100.93
1740143406.786;89;10.00;39374.33
1740143406.835;89;10.00;39374.33
1740143406.885;89;10.00;39374.33
1740143406.935;87;10.00;38699.00
1740143406.985;87;10.00;38699.00
1740143407.036;83;10.00;37587.20
1740143407.085;83;10.00;37587.20
1740143407.136;83;10.00;37587.20
1740143407.185;85;10.00;38222.27
1740143407.236;85;10.00;38222.27
1740143407.287;83;10.00;37508.20
1740143407.337;86;10.00;38567.93
1740143407.386;86;10.00;38567.93
1740143407.436;79;10.00;36077.33
1740143407.486;79;10.00;36077.33
1740143407.536;86;10.00;38393.54
1740143407.587;86;10.00;38393.54
1740143407.638;86;10.00;38393.54
1740143407.688;84;10.00;37680.73
1740143407.738;84;10.00;37680.73
1740143407.837;82;10.00;37168.93
1740143407.889;82;10.00;37168.93
1740143407.939;79;10.00;36050.00
1740143407.989;79;10.00;36050.00
1740143408.039;87;10.00;38800.40
1740143408.089;87;10.00;38800.40
1740143408.139;77;10.00;35615.73
1740143408.189;79;10.00;36276.80
1740143408.239;79;10.00;36276.80
1740143408.289;79;10.00;36176.40
1740143408.339;79;10.00;36176.40
1740143408.391;85;10.00;38106.80
1740143408.443;86;10.00;38401.07
1740143408.493;86;10.00;38401.07
1740143408.543;82;10.00;37298.93
1740143408.593;88;10.00;39148.00
1740143408.643;88;10.00;39148.00
1740143408.693;86;10.00;38592.46
1740143408.743;86;10.00;38592.46
1740143408.793;89;10.00;39380.27
1740143408.843;81;10.00;36757.87
1740143408.893;81;10.00;36757.87
1740143408.943;79;10.00;36036.33
1740143408.992;79;10.00;36036.33
1740143409.043;86;10.00;38546.54
1740143409.093;79;10.00;36142.13
1740143409.143;79;10.00;36142.13
1740143409.193;85;10.00;38193.93
1740143409.244;85;10.00;38193.93
1740143409.294;85;10.00;38193.93
1740143409.344;85;10.00;38035.46
1740143409.395;85;10.00;38035.46
1740143409.445;80;10.00;36648.80
1740143409.495;80;10.00;36648.80
1740143409.545;89;10.00;39441.93
1740143409.595;86;10.00;38474.07
1740143409.645;86;10.00;38474.07
1740143409.695;78;10.00;35872.67
1740143409.745;78;10.00;35872.67
1740143409.795;78;10.00;35872.67
1740143409.845;85;10.00;38122.27
1740143409.895;85;10.00;38122.27
1740143409.945;79;10.00;36110.40
1740143409.995;79;10.00;36110.40
1740143410.045;79;10.00;36067.46
1740143410.096;84;10.00;37669.80
1740143410.146;84;10.00;37669.80
1740143410.196;80;10.00;36618.46
1740143410.246;80;10.00;36618.46
1740143410.296;80;10.00;36618.46
1740143410.347;77;10.00;35678.00
1740143410.396;77;10.00;35678.00
1740143410.446;83;10.00;37545.73
1740143410.496;83;10.00;37545.73
1740143410.546;86;10.00;38454.27
1740143410.597;86;10.00;38454.27
1740143410.646;86;10.00;38454.27
1740143410.696;83;10.00;37421.73
1740143410.746;83;10.00;37421.73
1740143410.797;75;10.00;34916.54
1740143419.944;75;10.00;34786.13
1740143419.995;75;10.00;34786.13
1740143420.045;83;10.00;37523.80
1740143420.095;83;10.00;37523.80
1740143420.145;78;10.00;35851.60
1740143420.195;78;10.00;35851.60
1740143420.245;79;10.00;36041.27
1740143420.295;87;10.00;38706.00
1740143420.344;87;10.00;38706.00
1740143420.395;87;10.00;38706.00
1740143420.446;79;10.00;36310.13
1740143420.496;79;10.00;36310.13
1740143420.547;83;10.00;37538.00
1740143420.597;83;10.00;37538.00
1740143420.646;80;10.00;36419.73
1740143420.696;89;10.00;39447.60
1740143420.746;89;10.00;39447.60
1740143420.796;82;10.00;37117.00
1740143420.846;82;10.00;37117.00
1740143420.896;82;10.00;37127.54
1740143420.946;87;10.00;38656.73
1740143420.996;87;10.00;38656.73
1740143421.046;84;10.00;37677.60
1740143421.096;84;10.00;37677.60
1740143421.146;86;10.00;38435.93
1740143421.196;86;10.00;38394.54
1740143421.246;86;10.00;38394.54
1740143421.297;80;10.00;36396.80
1740143421.347;78;10.00;35782.13
1740143421.400;78;10.00;35782.13
1740143421.447;75;10.00;34989.07
1740143421.497;75;10.00;34989.07
1740143421.547;84;10.00;37873.46
1740143421.597;80;10.00;36509.46
1740143421.647;80;10.00;36509.46
1740143421.697;81;10.00;36859.73
1740143421.747;81;10.00;36859.73
1740143421.797;81;10.00;36859.73
1740143421.847;84;10.00;37682.27
1740143421.897;84;10.00;37682.27
1740143421.947;78;10.00;35794.80
1740143421.998;78;10.00;35794.80
1740143422.047;78;10.00;35731.87
1740143422.097;82;10.00;37225.67
1740143422.147;82;10.00;37225.67
1740143422.197;85;10.00;38075.67
1740143422.247;85;10.00;38075.67
1740143422.298;85;10.00;38075.67
1740143422.347;82;10.00;37130.67
1740143422.397;82;10.00;37130.67
1740143422.448;86;10.00;38367.67
1740143422.498;86;10.00;38367.67
1740143422.548;86;10.00;38367.67
1740143422.598;79;10.00;36049.60
1740143422.648;79;10.00;36049.60
1740143422.698;86;10.00;38316.73
1740143422.748;83;10.00;37340.67
1740143422.798;83;10.00;37340.67
1740143422.848;88;10.00;39054.80
1740143422.898;88;10.00;39054.80
1740143422.948;75;10.00;34910.93
1740143422.998;75;10.00;34910.93
1740143423.048;75;10.00;34910.93
1740143423.098;85;10.00;38013.33
1740143423.148;85;10.00;38013.33
1740143423.199;84;10.00;37685.20
1740143423.249;84;10.00;37685.20
1740143423.298;84;10.00;37685.20
1740143423.349;85;10.00;38287.80
1740143423.400;85;10.00;38287.80
1740143423.449;85;10.00;38257.40
1740143423.500;85;10.00;38257.40
1740143423.549;85;10.00;38232.54
1740143423.601;87;10.00;38739.46
1740143423.651;87;10.00;38739.46
1740143423.700;78;10.00;35927.87
1740143423.750;80;10.00;36484.00
1740143423.800;80;10.00;36484.00
1740143423.851;80;10.00;36369.73
1740143423.900;80;10.00;36369.73
1740143423.950;81;10.00;36817.87
1740143424.000;81;10.00;36817.87
1740143424.051;83;10.00;37361.33
1740143424.101;75;10.00;34874.13
1740143424.151;75;10.00;34874.13
1740143424.202;86;10.00;38359.13
1740143424.251;86;10.00;38359.13
1740143424.301;85;10.00;38241.80
1740143424.351;82;10.00;37246.13
1740143424.402;82;10.00;37246.13
1740143424.451;83;10.00;37466.33
1740143424.501;83;10.00;37466.33
1740143424.551;80;10.00;36520.33
1740143525.952;200;17.59;36013.07
1740143526.001;200;16.89;34976.13
1740143526.051;200;16.89;34976.13
1740143526.101;200;18.41;37223.27
1740143526.151;200;18.41;37223.27
1740143526.201;200;16.84;34901.20
1740143526.251;200;19.34;38596.40
1740143526.301;200;19.34;38596.40
1740143526.352;200;21.09;41199.80
1740143526.402;200;21.09;41199.80
1740143526.452;200;21.09;41199.80
1740143526.503;200;19.76;39228.27
1740143526.553;200;19.76;39228.27
1740143526.603;200;20.92;40948.54
1740143526.653;200;20.92;40948.54
1740143526.753;200;17.62;36062.67
1740143526.803;200;17.62;36062.67
1740143526.853;200;21.26;41451.46
1740143526.903;200;21.26;41451.46
1740143526.953;200;21.26;41451.46
1740143527.003;200;18.07;36716.54
1740143527.054;200;18.07;36716.54
1740143527.103;200;20.99;41050.40
1740143527.153;200;20.99;41050.40
1740143527.203;200;20.99;41050.40
1740143527.253;200;21.57;41907.60
1740143527.303;200;21.57;41907.60
1740143527.353;200;20.54;40373.07
1740143527.403;200;21.60;41955.60
1740143527.453;200;21.60;41955.60
1740143527.503;200;21.86;42330.13
1740143527.553;200;21.86;42330.13
1740143527.602;200;21.58;41916.46
1740143527.653;200;21.58;41916.46
1740143527.703;200;21.58;41916.46
1740143527.753;200;21.82;42278.67
1740143527.803;200;21.82;42278.67
1740143527.853;200;21.18;41320.33
1740143527.903;200;20.39;40152.54
1740143527.953;200;20.39;40152.54
1740143528.003;200;21.77;42203.46
1740143528.052;200;21.77;42203.46
1740143528.103;200;17.64;36087.40
1740143528.154;200;17.64;36087.40
1740143528.203;200;18.82;37830.67
1740143528.252;200;18.33;37105.46
1740143528.303;200;18.33;37105.46
1740143528.353;200;18.66;37591.87
1740143528.403;200;17.47;35839.46
1740143528.453;200;17.47;35839.46
1740143528.503;200;20.19;39862.87
1740143528.553;200;20.19;39862.87
1740143528.603;200;20.16;39823.00
1740143528.653;200;18.43;37251.00
1740143528.703;200;18.43;37251.00
1740143528.753;200;18.43;37251.00
1740143528.803;200;19.51;38848.27
1740143528.853;200;19.51;38848.27
1740143528.902;200;18.78;37773.73
1740143528.954;200;18.78;37773.73
1740143529.004;200;17.36;35664.13
1740143529.053;200;17.76;36263.07
1740143529.104;200;17.76;36263.07
1740143529.154;200;20.78;40735.33
1740143529.205;200;20.78;40735.33
1740143529.254;200;20.78;40735.33
1740143529.305;200;21.15;41288.80
1740143529.355;200;21.15;41288.80
1740143529.405;200;19.60;38981.27
1740143529.454;200;19.60;38981.27
1740143529.505;200;20.87;40863.73
1740143529.555;200;19.23;38440.27
1740143529.604;200;19.23;38440.27
1740143529.655;200;18.25;36995.54
1740143529.705;200;18.25;36995.54
1740143529.805;200;19.19;38385.40
1740143529.855;200;19.19;38385.40
1740143529.905;200;18.78;37773.33
1740143529.955;200;18.78;37773.33
1740143530.005;200;19.98;39550.67
1740143530.055;200;19.98;39550.67
1740143530.105;200;19.98;39550.67
1740143530.155;200;21.88;42358.67
1740143530.205;200;21.88;42358.67
1740143530.255;200;17.89;36457.87
1740143530.305;200;18.68;37617.67
1740143530.355;200;18.68;37617.67
1740143530.405;200;21.26;41447.87
1740143530.455;200;21.26;41447.87
1740143530.505;200;17.14;35342.93
1740143530.555;200;17.14;35342.93
1740143530.605;200;17.28;35545.60
1740143540.215;200;17.05;35206.93
1740143540.264;200;17.05;35206.93
1740143540.315;200;17.48;35844.46
1740143540.364;200;21.23;41407.13
1740143540.415;200;21.23;41407.13
1740143540.464;200;17.67;36136.40
1740143540.515;200;17.00;35137.33
1740143540.564;200;17.00;35137.33
1740143540.615;200;17.04;35193.54
1740143540.665;200;17.04;35193.54
1740143540.815;200;17.32;35612.00
1740143540.864;200;17.32;35612.00
1740143540.915;200;17.76;36268.54
1740143540.964;200;18.29;37046.40
1740143541.015;200;18.29;37046.40
1740143541.065;200;16.90;34983.20
1740143541.115;200;16.90;34983.20
1740143541.164;200;21.50;41799.73
1740143541.214;200;17.73;36210.93
1740143541.264;200;17.73;36210.93
1740143541.315;200;19.65;39054.60
1740143541.364;200;19.65;39054.60
1740143541.414;200;19.92;39462.80
1740143541.464;200;19.92;39462.80
1740143541.515;200;19.03;38141.93
1740143541.565;200;18.46;37293.67
1740143541.616;200;18.46;37293.67
1740143541.665;200;19.55;38911.87
1740143541.715;200;19.55;38911.87
1740143541.765;200;20.36;40115.07
1740143541.815;200;20.36;40115.07
1740143541.866;200;18.96;38032.46
1740143541.916;200;17.92;36503.73
1740143541.966;200;17.92;36503.73
1740143542.016;200;17.92;36503.73
1740143542.065;200;17.92;36503.73
1740143542.115;200;17.92;36503.73
1740143542.166;200;17.92;36503.73
1740143542.216;200;17.92;36503.73
1740143542.266;200;17.92;36503.73
1740143542.315;200;17.92;36503.73
1740143542.365;200;17.92;36503.73
1740143542.416;200;17.92;36503.73
1740143542.465;200;17.92;36503.73
1740143542.515;200;17.92;36503.73
1740143542.566;200;17.92;36503.73
1740143542.616;200;17.92;36503.73
1740143542.665;200;17.92;36503.73
1740143542.715;200;16.98;35106.27
1740143542.766;200;19.88;39405.13
1740143542.820;200;18.27;37013.07
1740143542.868;200;20.09;39707.67
1740143542.918;200;20.51;40328.33
1740143542.968;200;20.51;40328.33
1740143543.017;200;20.51;40328.33
1740143543.068;200;20.51;40328.33
1740143543.118;200;20.51;40328.33
1740143543.168;200;20.51;40328.33
1740143543.218;200;19.29;38535.20
1740143543.268;200;19.93;39482.40
1740143543.318;200;17.49;35862.54
1740143543.368;200;16.92;35017.33
1740143543.418;200;16.92;35017.33
1740143543.468;200;21.82;42272.54
1740143543.768;200;16.85;34913.33
1740143543.818;200;16.83;34879.46
1740143543.868;200;18.74;37720.87
1740143543.918;200;18.74;37720.87
1740143543.968;200;16.99;35120.40
1740143544.017;200;16.99;35120.40
1740143544.068;200;21.44;41713.80
1740143544.118;200;20.95;40986.20
1740143544.168;200;20.95;40986.20
1740143544.218;200;19.65;39054.87
1740143544.268;200;19.65;39054.87
1740143544.318;200;21.22;41393.40
1740143544.368;200;21.22;41393.40
1740143544.419;200;18.90;37957.87
1740143544.468;200;18.90;37957.87
1740143544.518;200;19.02;38131.00
1740143544.568;200;19.02;38131.00
1740143544.618;200;20.98;41035.60
1740143544.668;200;20.98;41035.60
1740143544.718;200;19.53;38877.00
1740143544.768;200;18.50;37354.93
1740143544.824;200;18.50;37354.93
1740143544.872;200;21.08;41184.80
1740143544.921;200;21.08;41184.80
1740143544.972;200;17.25;35512.93
1740143545.022;200;17.63;36067.60
1740143545.073;200;19.13;38285.80
1740143545.122;200;19.99;39566.67
1740143545.173;200;19.99;39566.67
1740143545.222;200;20.01;39592.80
1740143545.273;200;20.01;39592.80
1740143545.322;200;18.86;37895.00
1740143545.372;200;18.86;37895.00
1740143545.423;200;17.44;35782.80
1740143545.473;200;17.44;35782.80
1740143545.523;200;17.07;35245.33
1740143545.573;200;17.07;35245.33
1740143545.623;200;20.53;40363.27
1740143545.673;200;18.60;37504.67
1740143545.723;200;16.79;34822.46
1740143554.219;200;17.44;35783.67
1740143554.269;200;17.44;35783.67
1740143554.319;200;19.65;39061.33
1740143554.369;200;19.65;39061.33
1740143554.419;200;17.89;36453.67
1740143554.470;200;18.11;36782.27
1740143554.520;200;18.11;36782.27
1740143554.570;200;17.03;35182.00
1740143554.620;200;17.03;35182.00
1740143554.669;200;17.03;35182.00
1740143554.719;200;17.54;35933.07
1740143554.770;200;17.54;35933.07
1740143554.819;200;18.16;36856.80
1740143554.870;200;18.16;36856.80
1740143554.920;200;18.01;36639.87
1740143554.971;200;20.29;40005.80
1740143555.020;200;20.29;40005.80
1740143555.069;200;17.27;35536.80
1740143555.120;200;16.86;34936.54
1740143555.170;200;16.86;34936.54
1740143555.220;200;19.20;38401.93
1740143555.269;200;19.20;38401.93
1740143555.370;200;17.22;35464.33
1740143555.419;200;17.22;35464.33
1740143555.470;200;19.90;39429.07
1740143555.520;200;19.90;39429.07
1740143555.569;200;19.90;39429.07
1740143555.620;200;19.94;39488.33
1740143555.670;200;19.94;39488.33
1740143555.719;200;20.30;40028.60
1740143555.770;200;20.30;40028.60
1740143555.820;200;19.47;38787.80
1740143555.870;200;18.06;36699.67
1740143555.920;200;18.06;36699.67
1740143555.970;200;18.48;37333.67
1740143556.019;200;18.68;37632.07
1740143556.070;200;18.68;37632.07
1740143556.120;200;17.34;35635.87
1740143556.171;200;17.34;35635.87
1740143556.220;200;18.78;37777.73
1740143556.270;200;18.78;37777.73
1740143556.320;200;20.86;40853.00
1740143556.370;200;19.99;39566.93
1740143556.420;200;19.99;39566.93
1740143556.470;200;19.26;38488.54
1740143556.520;200;19.26;38488.54
1740143556.570;200;19.26;38488.54
1740143556.620;200;19.83;39324.80
1740143556.670;200;19.83;39324.80
1740143556.721;200;17.58;35998.13
1740143556.770;200;17.69;36158.73
1740143556.820;200;17.69;36158.73
1740143556.870;200;21.02;41088.46
1740143556.920;200;21.02;41088.46
1740143556.970;200;19.76;39227.46
1740143557.020;200;18.58;37473.67
1740143557.071;200;18.58;37473.67
1740143557.120;200;19.66;39081.80
1740143557.170;200;19.66;39081.80
1740143557.370;200;17.08;35260.00
1740143557.421;200;17.08;35260.00
1740143557.471;200;17.11;35293.33
1740143557.521;200;16.83;34884.87
1740143557.571;200;16.83;34884.87
1740143557.721;200;20.07;39689.46
1740143557.772;200;17.96;36552.80
1740143557.821;200;17.96;36552.80
1740143557.872;200;19.29;38535.54
1740143557.921;200;19.29;38535.54
1740143557.971;200;19.29;38535.54
1740143558.024;200;16.82;34870.00
1740143558.074;200;16.82;34870.00
1740143558.124;200;16.82;34870.00
1740143558.174;200;17.33;35630.00
1740143558.224;200;17.33;35630.00
1740143558.274;200;20.47;40272.46
1740143558.324;200;20.05;39647.67
1740143558.374;200;20.05;39647.67
1740143558.424;200;17.92;36502.00
1740143558.474;200;17.92;36502.00
1740143558.524;200;17.16;35379.27
1740143558.574;200;17.16;35379.27
1740143558.624;200;19.73;39175.40
1740143558.675;200;17.61;36041.87
1740143558.724;200;17.61;36041.87
1740143558.774;200;21.71;42104.46
1740143654.149;400;16.88;34956.27
1740143654.199;400;16.88;34956.27
1740143654.250;400;20.91;40929.13
1740143654.300;400;20.91;40929.13
1740143654.350;400;21.40;41654.40
1740143654.550;400;17.93;36513.07
1740143654.600;400;17.93;36513.07
1740143654.650;400;17.03;35178.93
1740143654.800;400;17.33;35632.54
1740143654.850;400;17.42;35763.20
1740143654.900;400;17.42;35763.20
1740143654.950;400;19.38;38663.00
1740143655.000;400;19.38;38663.00
1740143655.050;400;17.83;36366.54
1740143655.100;400;17.83;36366.54
1740143655.150;400;17.83;36366.54
1740143655.201;400;19.31;38563.20
1740143655.251;400;19.31;38563.20
1740143655.300;400;17.67;36135.07
1740143655.350;400;18.88;37922.54
1740143655.402;400;18.88;37922.54
1740143655.451;400;21.17;41318.07
1740143655.501;400;21.17;41318.07
1740143655.551;400;21.55;41871.20
1740143655.601;400;19.22;38431.67
1740143655.651;400;19.22;38431.67
1740143655.701;400;19.90;39427.20
1740143655.751;400;19.90;39427.20
1740143655.801;400;19.90;39427.20
1740143655.851;400;21.13;41254.00
1740143655.901;400;21.13;41254.00
1740143656.051;400;17.25;35500.80
1740143656.101;400;16.92;35015.46
1740143656.151;400;16.92;35015.46
1740143656.201;400;18.60;37502.93
1740143656.251;400;18.87;37906.93
1740143656.301;400;18.87;37906.93
1740143656.351;400;18.37;37170.33
1740143656.402;400;18.37;37170.33
1740143656.452;400;21.15;41281.46
1740143656.502;400;21.15;41281.46
1740143656.552;400;21.15;41281.46
1740143656.602;400;18.31;37083.07
1740143656.652;400;18.31;37083.07
1740143656.852;400;17.28;35546.46
1740143656.903;400;17.28;35546.46
1740143656.953;400;21.37;41609.87
1740143657.003;400;21.37;41609.87
1740143657.052;400;21.65;42021.07
1740143657.103;400;17.55;35956.00
1740143657.152;400;17.55;35956.00
1740143657.252;400;17.42;35758.13
1740143657.303;400;17.42;35758.13
1740143657.353;400;20.77;40715.93
1740143657.403;400;20.77;40715.93
1740143657.453;400;21.69;42082.67
1740143657.503;400;20.69;40597.07
1740143657.553;400;20.69;40597.07
1740143657.753;400;17.44;35794.40
1740143657.802;400;17.44;35794.40
1740143657.852;400;18.15;36833.27
1740143657.902;400;18.15;36833.27
1740143657.952;400;19.69;39115.46
1740143658.002;400;20.46;40265.80
1740143658.053;400;20.46;40265.80
1740143658.103;400;19.53;38884.33
1740143658.152;400;17.48;35841.60
1740143658.203;400;17.48;35841.60
1740143658.253;400;21.42;41685.73
1740143658.303;400;21.42;41685.73
1740143658.353;400;19.10;38248.46
1740143658.402;400;19.10;38248.46
1740143658.453;400;19.10;38248.46
1740143658.503;400;20.93;40952.93
1740143658.553;400;20.93;40952.93
1740143658.603;400;19.56;38922.54
1740143658.753;400;17.88;36443.46
1740143658.803;400;17.88;36443.46
1740143658.853;400;17.88;36443.46
1740143667.584;400;17.03;35182.67
1740143667.633;400;17.03;35182.67
1740143667.684;400;19.28;38506.13
1740143667.734;400;19.23;38442.80
1740143667.784;400;20.51;40332.40
1740143667.834;400;19.25;38469.33
1740143667.885;400;19.25;38469.33
1740143667.934;400;21.81;42260.00
1740143667.984;400;21.81;42260.00
1740143668.034;400;18.69;37634.93
1740143668.084;400;18.69;37634.93
1740143668.134;400;17.36;35667.73
1740143668.184;400;17.36;35667.73
1740143668.234;400;19.17;38347.07
1740143668.284;400;19.17;38347.07
1740143668.334;400;17.11;35305.60
1740143668.485;400;16.78;34809.33
1740143668.534;400;16.78;34809.33
1740143668.585;400;21.86;42340.60
1740143668.635;400;21.86;42340.60
1740143668.685;400;21.02;41096.20
1740143668.735;400;17.42;35763.46
1740143668.785;400;17.42;35763.46
1740143668.834;400;21.65;42015.80
1740143668.886;400;21.65;42015.80
1740143669.336;400;17.13;35327.73
1740143669.386;400;17.13;35327.73
1740143669.435;400;21.05;41129.00
1740143669.486;400;21.05;41129.00
1740143669.536;400;20.01;39598.93
1740143669.586;400;20.01;39598.93
1740143669.636;400;18.64;37573.07
1740143669.686;400;18.64;37573.07
1740143669.736;400;17.89;36459.73
1740143669.786;400;17.89;36459.73
1740143669.837;400;18.99;38084.27
1740143669.886;400;18.17;36863.46
1740143669.937;400;18.17;36863.46
1740143669.986;400;21.10;41212.87
1740143670.036;400;21.10;41212.87
1740143670.086;400;19.48;38808.40
1740143670.136;400;20.06;39661.20
1740143670.186;400;20.06;39661.20
1740143670.237;400;21.43;41693.93
1740143670.286;400;21.43;41693.93
1740143670.636;400;16.85;34915.20
1740143670.736;400;16.88;34953.60
1740143670.787;400;18.79;37783.87
1740143670.836;400;18.79;37783.87
1740143670.886;400;21.75;42170.40
1740143670.937;400;21.75;42170.40
1740143671.336;400;17.04;35198.27
1740143671.387;400;17.04;35198.27
1740143671.436;400;21.51;41812.87
1740143671.487;400;21.51;41812.87
1740143671.536;400;16.79;34827.13
1740143680.178;400;16.82;34877.07
1740143680.227;400;16.82;34877.07
1740143680.278;400;17.03;35185.87
1740143680.328;400;17.03;35185.87
1740143680.527;400;16.76;34774.93
1740143680.578;400;16.76;34774.93
1740143680.627;400;17.15;35364.73
1740143680.678;400;17.15;35364.73
1740143680.727;400;21.21;41366.00
1740143680.778;400;21.21;41366.00
1740143680.827;400;18.58;37472.93
1740143680.877;400;18.58;37472.93
1740143680.928;400;16.86;34929.73
1740143681.727;400;17.08;35251.73
1740143681.877;400;17.25;35511.87
1740143681.927;400;17.25;35511.87
1740143681.978;400;21.00;41064.67
1740143682.028;400;21.00;41064.67
1740143682.078;400;18.45;37282.80
1740143682.128;400;18.45;37282.80
1740143682.178;400;17.35;35660.13
1740143682.227;400;17.23;35484.54
1740143682.277;400;17.23;35484.54
1740143682.328;400;21.77;42198.67
1740143682.377;400;21.77;42198.67
1740143682.428;400;19.80;39287.33
1740143682.479;400;19.80;39287.33
1740143682.878;400;16.84;34900.80
1740143682.928;400;16.84;34900.80
1740143683.228;400;16.98;35114.40
1740143683.278;400;16.98;35114.40
1740143683.328;400;19.56;38925.93
1740143683.378;400;19.56;38925.93
1740143683.528;400;18.08;36734.54
1740143683.828;400;17.10;35289.54
1740143683.878;400;17.10;35289.54
1740143683.927;400;16.79;34826.13
1740143683.978;400;16.79;34826.13
1740143684.028;400;20.94;40970.07
1740143684.078;400;20.94;40970.07
1740143684.128;400;18.01;36627.73
1740143684.178;400;18.60;37511.27
1740143684.228;400;18.60;37511.27
