UnixTimestamp;Microseconds;MilliAmpere;BaseValue
1726244230.537;500;1.00
1726244230.585;500;1.00
1726244230.635;500;1.00
1726244230.684;500;1.00
1726244230.735;500;1.00
1726244230.786;500;1.00
1726244230.835;500;1.00
1726244230.885;500;1.00
1726244230.935;500;1.00
1726244230.985;500;1.00
1726244231.035;500;1.00
1726244231.085;500;1.00
1726244231.135;500;1.00
1726244231.186;500;1.00
1726244231.236;500;1.00
1726244231.285;500;1.00
1726244234.555;1;40.00
1726244234.605;1;40.00
1726244234.655;1;40.00
1726244234.705;1;40.00
1726244234.755;1;40.00
1726244234.805;1;40.00
1726244234.856;1;40.00
1726244234.905;1;40.00
1726244234.956;1;40.00
1726244235.006;1;40.00
1726244235.056;1;40.00
1726244235.106;1;40.00
1726244235.156;1;40.00
1726244235.205;1;40.00
1726244235.256;1;40.00
1726244235.305;1;40.00
1726244325.580;50;13.49;34299.46
1726244325.630;50;13.97;35120.00
1726244325.681;50;13.97;35120.00
1726244325.732;50;13.97;35120.00
1726244325.832;50;15.73;38159.00
1726244325.882;50;15.91;38470.93
1726244325.932;50;15.91;38470.93
1726244325.982;50;13.48;34290.40
1726244326.032;50;13.65;34568.93
1726244326.182;50;15.33;37478.13
1726244326.232;50;13.67;34610.54
1726244326.282;50;13.67;34610.54
1726244326.332;50;13.67;34610.54
1726244326.382;50;14.33;35747.33
1726244326.432;50;15.19;37221.46
1726244326.483;50;15.19;37221.46
1726244326.532;50;14.91;36751.20
1726244326.582;50;15.80;38285.87
1726244326.633;50;15.80;38285.87
1726244326.683;50;15.80;38285.87
1726244326.733;50;15.86;38388.80
1726244326.783;50;14.24;35588.13
1726244326.833;50;14.24;35588.13
1726244326.883;50;14.09;35332.13
1726244326.933;50;13.71;34684.27
1726244326.982;50;13.71;34684.27
1726244327.033;50;13.71;34684.27
1726244327.083;50;15.57;37883.73
1726244327.133;50;15.57;37883.73
1726244327.183;50;15.57;37883.73
1726244327.234;50;13.52;34347.60
1726244327.434;50;15.53;37809.20
1726244327.633;50;13.42;34175.07
1726244327.684;50;13.42;34175.07
1726244327.733;50;13.42;34175.07
1726244327.783;50;16.41;39326.13
1726244327.834;50;16.41;39326.13
1726244327.883;50;16.41;39326.13
1726244327.935;50;15.89;38437.80
1726244327.984;50;15.39;37574.87
1726244328.034;50;15.39;37574.87
1726244328.084;50;15.54;37827.27
1726244328.134;50;14.17;35470.93
1726244328.185;50;14.17;35470.93
1726244328.234;50;14.17;35470.93
1726244328.486;50;13.81;34848.40
1726244328.686;50;14.53;36091.87
1726244340.932;50;13.56;34415.20
1726244340.982;50;13.56;34415.20
1726244341.032;50;14.30;35699.33
1726244341.082;50;15.80;38288.00
1726244341.133;50;15.80;38288.00
1726244341.183;50;15.80;38288.00
1726244341.232;50;16.43;39357.60
1726244341.283;50;14.90;36735.87
1726244341.333;50;14.90;36735.87
1726244341.383;50;17.18;40648.80
1726244341.433;50;13.89;34998.13
1726244341.483;50;13.89;34998.13
1726244341.533;50;13.89;34998.13
1726244341.583;50;16.02;38661.73
1726244341.633;50;16.02;38661.73
1726244341.684;50;16.02;38661.73
1726244341.734;50;15.15;37153.20
1726244341.784;50;14.71;36407.00
1726244341.835;50;14.71;36407.00
1726244341.885;50;15.70;38115.13
1726244341.935;50;14.33;35754.87
1726244341.985;50;14.92;36772.07
1726244342.035;50;14.92;36772.07
1726244342.085;50;16.22;39004.00
1726244342.135;50;13.81;34844.93
1726244342.185;50;13.81;34844.93
1726244342.235;50;13.81;34844.93
1726244342.285;50;16.76;39939.73
1726244342.385;50;14.50;36033.46
1726244342.436;50;14.50;36033.46
1726244342.486;50;14.50;36033.46
1726244342.536;50;16.98;40306.93
1726244342.587;50;16.66;39767.93
1726244342.637;50;16.66;39767.93
1726244342.687;50;16.66;39767.93
1726244342.738;50;13.65;34571.27
1726244342.787;50;16.24;39029.33
1726244342.837;50;16.24;39029.33
1726244342.887;50;16.24;39029.33
1726244342.937;50;14.20;35532.27
1726244342.987;50;13.54;34393.33
1726244343.038;50;13.54;34393.33
1726244343.088;50;13.47;34262.80
1726244343.138;50;14.48;36008.13
1726244343.188;50;16.01;38634.13
1726244343.238;50;16.01;38634.13
1726244343.288;50;16.32;39181.07
1726244343.338;50;15.76;38210.54
1726244343.389;50;14.68;36354.00
1726244343.438;50;14.68;36354.00
1726244343.488;50;14.55;36119.33
1726244343.538;50;14.42;35904.27
1726244343.589;50;13.78;34800.00
1726244343.638;50;13.78;34800.00
1726244343.689;50;13.50;34320.07
1726244343.740;50;13.83;34880.80
1726244343.790;50;14.56;36146.54
1726244343.841;50;14.56;36146.54
1726244343.891;50;13.59;34478.54
1726244343.940;50;14.37;35818.00
1726244343.992;50;14.37;35818.00
1726244344.042;50;14.37;35818.00
1726244344.093;50;15.42;37617.87
1726244344.143;50;14.46;35964.40
1726244344.193;50;13.79;34823.07
1726244344.243;50;13.79;34823.07
1726244344.293;50;13.79;34823.07
1726244344.343;50;13.81;34852.07
1726244344.392;50;16.57;39603.13
1726244344.443;50;16.57;39603.13
1726244344.493;50;16.57;39603.13
1726244344.543;50;17.05;40433.07
1726244344.593;50;14.47;35983.60
1726244344.643;50;14.47;35983.60
1726244344.693;50;14.47;35983.60
1726244344.743;50;16.72;39870.00
1726244344.793;50;15.48;37722.67
1726244344.844;50;15.48;37722.67
1726244344.893;50;14.88;36694.40
1726244344.943;50;15.58;37901.87
1726244344.993;50;15.01;36926.13
1726244345.043;50;15.01;36926.13
1726244345.093;50;16.18;38931.46
1726244345.144;50;15.67;38059.60
1726244345.194;50;15.67;38059.60
1726244345.247;50;15.67;38059.60
1726244345.296;50;15.86;38390.67
1726244345.345;50;15.82;38311.13
1726244345.396;50;17.13;40567.13
1726244345.446;50;17.13;40567.13
1726244345.496;50;15.77;38223.46
1726244345.546;50;16.99;40325.80
1726244345.596;50;14.56;36145.54
1726244345.645;50;14.56;36145.54
1726244345.697;50;14.23;35571.60
1726244345.747;50;13.60;34498.00
1726244345.797;50;13.60;34487.87
1726244345.846;50;13.60;34487.87
1726244345.898;50;13.60;34487.87
1726244345.948;50;15.83;38328.67
1726244357.162;50;13.55;34403.46
1726244357.212;50;13.60;34497.73
1726244357.262;50;13.60;34497.73
1726244357.312;50;13.60;34497.73
1726244357.412;50;16.21;38992.54
1726244357.462;50;15.50;37762.80
1726244357.512;50;15.50;37762.80
1726244357.562;50;15.30;37425.20
1726244357.612;50;16.16;38899.87
1726244357.662;50;16.16;38899.87
1726244357.712;50;16.16;38899.87
1726244357.762;50;14.76;36483.87
1726244357.812;50;13.85;34916.93
1726244357.862;50;13.85;34916.93
1726244357.912;50;13.85;34916.93
1726244357.962;50;16.33;39189.20
1726244358.012;50;15.45;37673.33
1726244358.062;50;15.45;37673.33
1726244358.112;50;15.45;37673.33
1726244358.162;50;13.74;34728.40
1726244358.212;50;13.96;35104.13
1726244358.262;50;13.96;35104.13
1726244358.312;50;13.96;35104.13
1726244358.362;50;13.96;35104.13
1726244358.412;50;14.09;35342.00
1726244358.462;50;14.09;35342.00
1726244358.512;50;14.09;35342.00
1726244358.563;50;14.09;35342.00
1726244358.612;50;15.50;37754.40
1726244358.663;50;14.51;36066.00
1726244358.713;50;14.51;36066.00
1726244358.762;50;14.51;36066.00
1726244358.813;50;16.82;40044.40
1726244358.864;50;15.30;37421.07
1726244358.914;50;13.90;34998.67
1726244358.964;50;13.90;34998.67
1726244359.014;50;13.90;34998.67
1726244359.064;50;13.72;34699.60
1726244359.115;50;16.06;38721.60
1726244359.164;50;16.06;38721.60
1726244359.215;50;16.06;38721.60
1726244359.266;50;15.81;38295.46
1726244359.315;50;16.22;39003.33
1726244359.365;50;16.22;39003.33
1726244359.417;50;16.22;39003.33
1726244359.467;50;13.81;34857.20
1726244359.517;50;13.98;35138.80
1726244359.567;50;13.98;35138.80
1726244359.618;50;13.98;35138.80
1726244359.668;50;15.92;38478.93
1726244359.718;50;13.61;34502.13
1726244359.768;50;13.61;34502.13
1726244359.820;50;13.61;34502.13
1726244359.871;50;16.28;39111.07
1726244359.921;50;15.60;37943.60
1726244359.970;50;15.60;37943.60
1726244360.021;50;15.60;37943.60
1726244360.070;50;16.23;39024.13
1726244360.121;50;14.60;36215.87
1726244360.172;50;14.60;36215.87
1726244360.222;50;14.60;36215.87
1726244360.322;50;15.26;37342.93
1726244360.372;50;15.26;37342.93
1726244360.422;50;15.26;37342.93
1726244360.472;50;16.36;39248.13
1726244360.522;50;13.63;34539.20
1726244360.572;50;13.63;34539.20
1726244360.622;50;13.63;34539.20
1726244360.673;50;15.67;38060.54
1726244360.723;50;16.70;39825.60
1726244360.773;50;16.70;39825.60
1726244360.822;50;16.70;39825.60
1726244360.873;50;15.79;38269.46
1726244360.923;50;16.82;40044.00
1726244360.973;50;16.82;40044.00
1726244361.023;50;16.82;40044.00
1726244361.073;50;13.89;34992.40
1726244361.123;50;14.79;36532.13
1726244361.173;50;14.79;36532.13
1726244361.223;50;14.79;36532.13
1726244361.273;50;14.19;35513.46
1726244361.323;50;15.44;37653.20
1726244361.374;50;15.44;37653.20
1726244361.424;50;15.44;37653.20
1726244361.474;50;16.86;40109.46
1726244361.524;50;15.57;37882.93
1726244361.574;50;15.57;37882.93
1726244361.624;50;15.57;37882.93
1726244361.674;50;15.09;37060.00
1726244361.723;50;14.44;35942.54
1726244361.774;50;14.44;35942.54
1726244361.824;50;14.44;35942.54
1726244361.875;50;16.48;39448.00
1726244361.924;50;15.67;38062.93
1726244361.975;50;15.67;38062.93
1726244362.024;50;15.67;38062.93
1726244362.076;50;16.10;38797.80
1726244362.126;50;16.16;38903.73
1726244362.176;50;16.16;38903.73
1726244362.226;50;16.16;38903.73
1726244362.276;50;16.16;38903.73
1726244362.326;50;13.70;34665.33
1726244629.046;60;10.00;34631.07
1726244629.096;60;10.00;34631.07
1726244629.146;60;10.00;34631.07
1726244629.197;64;10.00;36224.80
1726244629.247;65;10.00;36829.60
1726244629.296;65;10.00;36829.60
1726244629.347;65;10.00;36829.60
1726244629.397;70;10.00;38486.07
1726244629.447;59;10.00;34610.27
1726244629.497;59;10.00;34610.27
1726244629.546;59;10.00;34610.27
1726244629.598;67;10.00;37500.80
1726244629.648;63;10.00;35865.33
1726244629.698;63;10.00;35865.33
1726244629.748;63;10.00;35865.33
1726244629.798;62;10.00;35712.67
1726244629.848;65;10.00;36737.20
1726244629.897;65;10.00;36737.20
1726244629.947;65;10.00;36737.20
1726244629.998;62;10.00;35586.20
1726244630.048;73;10.00;39620.60
1726244630.099;73;10.00;39620.60
1726244630.149;73;10.00;39620.60
1726244630.199;69;10.00;38310.40
1726244630.249;69;10.00;38310.40
1726244630.299;69;10.00;38310.40
1726244630.349;66;10.00;36936.13
1726244630.400;74;10.00;39876.00
1726244630.450;61;10.00;35168.87
1726244630.502;61;10.00;35168.87
1726244630.552;61;10.00;35168.87
1726244630.602;61;10.00;35344.13
1726244630.652;61;10.00;35344.13
1726244630.702;61;10.00;35344.13
1726244630.752;70;10.00;38687.20
1726244630.802;66;10.00;37064.93
1726244630.852;64;10.00;36308.80
1726244630.902;64;10.00;36308.80
1726244630.953;64;10.00;36308.80
1726244631.002;76;10.00;40636.27
1726244631.052;69;10.00;38346.93
1726244631.103;69;10.00;38346.93
1726244631.153;69;10.00;38346.93
1726244631.203;64;10.00;36483.87
1726244631.254;68;10.00;37937.87
1726244631.305;68;10.00;37937.87
1726244631.354;68;10.00;37937.87
1726244631.405;72;10.00;39404.80
1726244631.455;74;10.00;39960.54
1726244631.506;74;10.00;39960.54
1726244631.556;74;10.00;39960.54
1726244631.606;70;10.00;38578.54
1726244631.656;70;10.00;38578.54
1726244631.706;70;10.00;38578.54
1726244631.757;65;10.00;36748.27
1726244632.008;64;10.00;36306.80
1726244632.058;67;10.00;37341.46
1726244632.109;60;10.00;34875.67
1726244632.160;60;10.00;34875.67
1726244632.209;60;10.00;34875.67
1726244632.260;63;10.00;36000.80
1726244632.310;68;10.00;37945.46
1726244632.360;68;10.00;37945.46
1726244632.411;68;10.00;37945.46
1726244632.461;68;10.00;37945.46
1726244632.510;72;10.00;39221.33
1726244632.561;72;10.00;39221.33
1726244632.610;72;10.00;39221.33
1726244632.660;72;10.00;39221.33
1726244632.710;63;10.00;36114.40
1726244632.760;58;10.00;34230.00
1726244632.812;58;10.00;34230.00
1726244632.862;58;10.00;34230.00
1726244632.912;72;10.00;39355.00
1726244632.962;69;10.00;38021.87
1726244633.012;69;10.00;38021.87
1726244633.062;67;10.00;37309.46
1726244633.112;69;10.00;38066.00
1726244633.162;69;10.00;38066.00
1726244633.211;69;10.00;38066.00
1726244633.262;69;10.00;38258.80
1726244633.912;59;10.00;34313.07
1726244633.962;59;10.00;34313.07
1726244634.012;59;10.00;34313.07
1726244634.062;59;10.00;34388.13
1726244634.113;68;10.00;37634.93
1726244634.162;68;10.00;37634.93
1726244634.213;68;10.00;37634.93
1726244634.262;65;10.00;36763.00
1726244634.313;64;10.00;36162.13
1726244646.853;67;10.00;37336.80
1726244646.905;64;10.00;36298.80
1726244646.954;64;10.00;36298.80
1726244647.003;64;10.00;36298.80
1726244647.053;60;10.00;34966.54
1726244647.104;71;10.00;38852.87
1726244647.154;64;10.00;36275.07
1726244647.204;64;10.00;36275.07
1726244647.254;64;10.00;36275.07
1726244647.304;65;10.00;36708.87
1726244647.354;73;10.00;39556.80
1726244647.404;73;10.00;39556.80
1726244647.454;71;10.00;38866.40
1726244647.504;69;10.00;38142.54
1726244647.555;69;10.00;38142.54
1726244647.605;69;10.00;38142.54
1726244647.655;68;10.00;37792.00
1726244647.705;64;10.00;36211.87
1726244647.755;64;10.00;36211.87
1726244647.805;64;10.00;36211.87
1726244647.855;76;10.00;40835.20
1726244647.905;72;10.00;39335.13
1726244647.955;72;10.00;39335.13
1726244648.006;72;10.00;39335.13
1726244648.055;61;10.00;35077.60
1726244648.106;75;10.00;40457.46
1726244648.156;72;10.00;39453.73
1726244648.205;72;10.00;39453.73
1726244648.255;72;10.00;39453.73
1726244648.305;70;10.00;38667.13
1726244648.356;71;10.00;38854.33
1726244648.406;61;10.00;35047.87
1726244648.455;61;10.00;35047.87
1726244648.505;61;10.00;35047.87
1726244648.555;64;10.00;36197.60
1726244648.605;76;10.00;40648.40
1726244648.655;62;10.00;35377.87
1726244648.705;62;10.00;35377.87
1726244648.755;62;10.00;35377.87
1726244648.805;64;10.00;36199.20
1726244648.855;67;10.00;37501.93
1726244648.906;67;10.00;37501.93
1726244648.956;67;10.00;37501.93
1726244649.055;63;10.00;35994.80
1726244649.105;63;10.00;35994.80
1726244649.157;63;10.00;35994.80
1726244649.207;63;10.00;35848.00
1726244649.257;71;10.00;39038.67
1726244649.307;71;10.00;39038.67
1726244649.356;71;10.00;39038.67
1726244649.406;64;10.00;36475.67
1726244649.456;67;10.00;37266.13
1726244649.507;67;10.00;37266.13
1726244649.557;67;10.00;37266.13
1726244649.607;62;10.00;35539.60
1726244649.658;72;10.00;39355.20
1726244649.707;72;10.00;39355.20
1726244649.757;72;10.00;39355.20
1726244649.807;73;10.00;39641.54
1726244649.867;71;10.00;38872.93
1726244649.911;71;10.00;38872.93
1726244649.962;71;10.00;38872.93
1726244650.012;71;10.00;38872.93
1726244650.061;59;10.00;34288.54
1726244650.112;70;10.00;38609.46
1726244650.162;70;10.00;38609.46
1726244650.212;70;10.00;38609.46
1726244650.261;61;10.00;35159.20
1726244650.312;72;10.00;39212.40
1726244650.362;65;10.00;36753.60
1726244650.413;63;10.00;36030.27
1726244650.463;63;10.00;36030.27
1726244650.513;63;10.00;36030.27
1726244650.562;62;10.00;35491.87
1726244650.613;74;10.00;39849.33
1726244650.663;76;10.00;40784.40
1726244650.713;76;10.00;40784.40
1726244650.763;76;10.00;40784.40
1726244650.813;66;10.00;37031.46
1726244650.863;72;10.00;39167.46
1726244650.913;72;10.00;39167.46
1726244650.963;72;10.00;39167.46
1726244651.013;72;10.00;39289.27
1726244651.063;71;10.00;38993.20
1726244651.113;71;10.00;38993.20
1726244651.163;71;10.00;38993.20
1726244651.213;72;10.00;39192.00
1726244651.263;69;10.00;38269.73
1726244651.313;69;10.00;38269.73
1726244651.364;69;10.00;38269.73
1726244651.413;64;10.00;36151.46
1726244651.464;72;10.00;39101.46
1726244651.513;72;10.00;39101.46
1726244651.564;72;10.00;39101.46
1726244651.614;71;10.00;38787.07
1726244651.815;63;10.00;36012.33
1726244652.015;59;10.00;34607.00
1726244664.636;59;10.00;34427.93
1726244664.686;60;10.00;34794.13
1726244664.735;60;10.00;34794.13
1726244664.786;60;10.00;34794.13
1726244664.836;71;10.00;38809.07
1726244664.886;66;10.00;37219.33
1726244664.937;66;10.00;37219.33
1726244664.986;66;10.00;37219.33
1726244665.036;68;10.00;37642.40
1726244665.086;61;10.00;35074.40
1726244665.136;61;10.00;35074.40
1726244665.186;61;10.00;35074.40
1726244665.236;70;10.00;38646.80
1726244665.286;71;10.00;38858.93
1726244665.336;71;10.00;38858.93
1726244665.386;71;10.00;38858.93
1726244665.436;64;10.00;36446.33
1726244665.487;64;10.00;36285.07
1726244665.536;64;10.00;36360.00
1726244665.587;64;10.00;36360.00
1726244665.636;64;10.00;36360.00
1726244665.686;71;10.00;38725.80
1726244665.736;64;10.00;36368.27
1726244665.786;64;10.00;36368.27
1726244665.837;64;10.00;36368.27
1726244665.887;73;10.00;39777.87
1726244665.936;61;10.00;35232.93
1726244665.986;61;10.00;35232.93
1726244666.036;61;10.00;35232.93
1726244666.087;67;10.00;37349.73
1726244666.138;69;10.00;38193.07
1726244666.188;60;10.00;34801.20
1726244666.237;60;10.00;34801.20
1726244666.288;60;10.00;34725.33
1726244666.338;62;10.00;35535.93
1726244666.388;64;10.00;36457.20
1726244666.438;64;10.00;36457.20
1726244666.488;61;10.00;35290.00
1726244666.539;62;10.00;35374.27
1726244666.589;61;10.00;35165.07
1726244666.639;61;10.00;35165.07
1726244666.690;61;10.00;35118.40
1726244666.743;60;10.00;34692.54
1726244666.790;61;10.00;35157.60
1726244666.839;61;10.00;35157.60
1726244666.890;61;10.00;35157.60
1726244666.940;66;10.00;37176.27
1726244666.989;71;10.00;38979.73
1726244667.039;71;10.00;38979.73
1726244667.090;71;10.00;38979.73
1726244667.139;59;10.00;34450.27
1726244667.189;60;10.00;34644.00
1726244667.240;60;10.00;34644.00
1726244667.289;60;10.00;34644.00
1726244667.340;62;10.00;35527.07
1726244667.389;60;10.00;34694.80
1726244667.439;60;10.00;34694.80
1726244667.491;66;10.00;37209.33
1726244667.540;66;10.00;37054.54
1726244667.590;65;10.00;36671.33
1726244667.640;65;10.00;36671.33
1726244667.690;65;10.00;36671.33
1726244667.740;66;10.00;37178.60
1726244667.790;70;10.00;38577.40
1726244667.840;70;10.00;38577.40
1726244667.890;72;10.00;39258.87
1726244667.940;59;10.00;34498.80
1726244667.990;70;10.00;38499.60
1726244668.040;70;10.00;38499.60
1726244668.092;70;10.00;38499.60
1726244668.142;69;10.00;38081.46
1726244668.192;69;10.00;38234.93
1726244668.242;69;10.00;38234.93
1726244668.292;69;10.00;38234.93
1726244668.342;63;10.00;35942.20
1726244668.393;63;10.00;36002.80
1726244668.443;63;10.00;36002.80
1726244668.493;69;10.00;38179.60
1726244668.543;65;10.00;36682.54
1726244668.594;65;10.00;36682.54
1726244668.644;65;10.00;36682.54
1726244668.744;62;10.00;35616.93
1726244668.796;60;10.00;34670.00
1726244668.845;60;10.00;34670.00
1726244668.946;70;10.00;38626.60
1726244669.145;72;10.00;39252.80
1726244669.197;59;10.00;34452.67
1726244669.247;59;10.00;34452.67
1726244669.297;59;10.00;34452.67
1726244669.347;60;10.00;34932.80
1726244669.396;74;10.00;40105.33
1726244669.446;74;10.00;40105.33
1726244669.498;74;10.00;40105.33
1726244669.548;61;10.00;35187.87
1726244794.285;350;13.47;34272.27
1726244794.335;350;14.03;35239.60
1726244794.385;350;14.03;35239.60
1726244794.434;350;14.03;35239.60
1726244794.486;350;13.66;34601.60
1726244794.536;350;15.38;37557.07
1726244794.586;350;15.38;37557.07
1726244794.636;350;15.38;37557.07
1726244794.686;350;17.29;40851.73
1726244794.736;350;17.42;41069.33
1726244794.787;350;17.42;41069.33
1726244794.837;350;17.42;41069.33
1726244794.887;350;14.18;35490.13
1726244794.936;350;15.33;37475.07
1726244794.986;350;15.33;37475.07
1726244795.037;350;15.33;37475.07
1726244795.087;350;13.61;34514.67
1726244795.137;350;16.50;39492.13
1726244795.187;350;16.50;39492.13
1726244795.237;350;16.50;39492.13
1726244795.288;350;17.10;40510.93
1726244795.337;350;13.78;34794.40
1726244795.388;350;13.78;34794.40
1726244795.438;350;13.78;34794.40
1726244795.488;350;13.84;34904.67
1726244795.538;350;15.99;38602.54
1726244795.589;350;15.99;38602.54
1726244795.638;350;15.99;38602.54
1726244795.689;350;16.59;39638.40
1726244795.738;350;16.55;39573.87
1726244795.788;350;16.55;39573.87
1726244795.840;350;16.55;39573.87
1726244795.890;350;14.07;35293.20
1726244795.940;350;15.33;37473.07
1726244795.990;350;15.33;37473.07
1726244796.042;350;17.16;40620.60
1726244796.092;350;16.18;38932.13
1726244796.142;350;15.34;37493.60
1726244796.191;350;15.34;37493.60
1726244796.241;350;14.36;35795.20
1726244796.292;350;14.20;35523.07
1726244796.492;350;16.03;38675.20
1726244796.542;350;13.58;34448.13
1726244796.592;350;13.58;34448.13
1726244796.643;350;13.58;34448.13
1726244796.692;350;13.54;34393.46
1726244796.742;350;16.91;40188.00
1726244796.793;350;16.91;40188.00
1726244796.842;350;16.91;40188.00
1726244796.892;350;17.18;40649.13
1726244796.943;350;17.24;40755.07
1726244796.992;350;17.24;40755.07
1726244797.043;350;17.24;40755.07
1726244797.092;350;17.23;40746.27
1726244797.142;350;16.91;40192.40
1726244797.193;350;16.91;40192.40
1726244797.242;350;16.76;39929.20
1726244797.493;350;13.46;34254.40
1726244797.692;350;15.56;37866.00
1726244797.743;350;13.87;34957.07
1726244797.793;350;13.87;34957.07
1726244797.843;350;13.87;34957.07
1726244797.892;350;15.81;38291.07
1726244797.943;350;13.64;34567.46
1726244797.993;350;13.64;34567.46
1726244798.043;350;13.64;34567.46
1726244798.092;350;17.36;40969.20
1726244798.143;350;15.98;38596.87
1726244798.193;350;15.98;38596.87
1726244798.244;350;14.91;36754.40
1726244798.294;350;15.01;36917.93
1726244798.344;350;16.18;38929.20
1726244798.394;350;16.18;38929.20
1726244798.447;350;16.01;38646.80
1726244798.500;350;17.25;40785.60
1726244798.547;350;15.26;37354.93
1726244798.597;350;15.26;37354.93
1726244798.647;350;15.26;37354.93
1726244798.697;350;16.20;38966.54
1726244798.747;350;14.12;35379.60
1726244798.798;350;14.17;35473.73
1726244798.849;350;14.17;35473.73
1726244798.898;350;14.17;35473.73
1726244798.948;350;13.70;34659.33
1726244798.999;350;17.25;40784.54
1726244799.049;350;17.29;40844.40
1726244799.099;350;17.29;40844.40
1726244799.149;350;17.08;40476.00
1726244799.199;350;13.66;34598.46
1726244799.250;350;14.09;35331.46
1726244799.300;350;14.09;35331.46
1726244799.349;350;14.09;35331.46
1726244799.400;350;13.86;34943.87
1726244811.330;350;13.44;34218.67
1726244811.382;350;14.71;36400.13
1726244811.432;350;14.71;36400.13
1726244811.482;350;14.71;36400.13
1726244811.532;350;14.14;35417.87
1726244811.581;350;17.19;40674.13
1726244811.632;350;17.19;40674.13
1726244811.682;350;17.19;40674.13
1726244811.733;350;17.17;40637.87
1726244811.783;350;17.43;41093.33
1726244811.833;350;17.43;41093.33
1726244811.884;350;17.24;40761.46
1726244811.934;350;15.10;37076.93
1726244811.984;350;15.10;37076.93
1726244812.033;350;15.10;37076.93
1726244812.084;350;17.40;41032.80
1726244812.133;350;17.27;40805.33
1726244812.184;350;17.27;40805.33
1726244812.235;350;17.27;40805.33
1726244812.286;350;17.22;40718.93
1726244812.335;350;17.10;40511.00
1726244812.385;350;17.10;40511.00
1726244812.435;350;17.10;40511.00
1726244812.486;350;13.56;34429.46
1726244812.536;350;13.75;34745.73
1726244812.585;350;13.75;34745.73
1726244812.635;350;13.75;34745.73
1726244812.686;350;17.46;41141.60
1726244812.735;350;17.42;41065.60
1726244812.786;350;17.07;40465.07
1726244812.836;350;17.07;40465.07
1726244812.885;350;17.07;40465.07
1726244812.944;350;17.47;41163.20
1726244812.992;350;17.31;40885.60
1726244813.042;350;17.31;40885.60
1726244813.092;350;17.02;40377.33
1726244813.292;350;13.46;34246.80
1726244813.342;350;13.76;34771.87
1726244813.392;350;13.76;34771.87
1726244813.441;350;13.76;34771.87
1726244813.492;350;15.43;37645.07
1726244813.542;350;16.43;39366.87
1726244813.592;350;16.43;39366.87
1726244813.642;350;16.43;39366.87
1726244813.692;350;14.67;36327.33
1726244813.743;350;13.99;35170.00
1726244813.793;350;13.99;35170.00
1726244813.843;350;16.90;40169.46
1726244813.893;350;15.38;37560.80
1726244813.942;350;15.38;37560.80
1726244813.993;350;15.38;37560.80
1726244814.043;350;16.52;39524.27
1726244814.093;350;15.07;37022.80
1726244814.143;350;15.07;37022.80
1726244814.193;350;15.07;37022.80
1726244814.245;350;17.16;40630.40
1726244814.295;350;17.33;40918.67
1726244814.345;350;15.01;36921.46
1726244814.395;350;15.01;36921.46
1726244814.444;350;15.01;36921.46
1726244814.695;350;14.10;35354.27
1726244815.097;350;13.60;34482.33
1726244815.347;350;14.65;36305.33
1726244815.397;350;14.65;36305.33
1726244815.447;350;14.65;36305.33
1726244815.497;350;13.83;34891.33
1726244815.547;350;17.06;40450.80
1726244815.597;350;17.06;40450.80
1726244815.647;350;16.80;39997.20
1726244815.698;350;17.15;40608.67
1726244815.747;350;17.33;40909.33
1726244815.798;350;17.33;40909.33
1726244815.847;350;17.33;40909.33
1726244816.147;350;13.91;35016.00
1726244816.348;350;14.07;35307.46
1726244816.399;350;14.07;35307.46
1726244816.449;350;14.07;35307.46
1726244828.820;350;14.16;35460.40
1726244828.870;350;14.16;35460.40
1726244828.920;350;14.16;35460.40
1726244828.970;350;14.26;35629.54
1726244829.020;350;15.63;37994.67
1726244829.070;350;14.74;36450.54
1726244829.120;350;14.74;36450.54
1726244829.170;350;14.74;36450.54
1726244829.220;350;17.35;40950.27
1726244829.270;350;13.89;34993.33
1726244829.320;350;13.89;34993.33
1726244829.372;350;13.89;34993.33
1726244829.422;350;13.85;34923.07
1726244829.472;350;17.43;41094.27
1726244829.522;350;17.43;41094.27
1726244829.572;350;17.43;41094.27
1726244829.622;350;17.21;40714.00
1726244829.672;350;16.64;39734.27
1726244829.721;350;16.64;39734.27
1726244829.772;350;16.64;39734.27
1726244829.821;350;14.05;35268.60
1726244829.871;350;15.22;37277.46
1726244829.923;350;15.22;37277.46
1726244829.972;350;15.22;37277.46
1726244830.023;350;15.22;37277.46
1726244830.072;350;17.08;40486.93
1726244830.122;350;17.08;40486.93
1726244830.172;350;17.08;40486.93
1726244830.222;350;14.48;36007.20
1726244830.273;350;17.12;40549.07
1726244830.323;350;17.12;40549.07
1726244830.372;350;17.12;40549.07
1726244830.423;350;16.39;39288.54
1726244830.472;350;17.25;40770.67
1726244830.524;350;17.25;40770.67
1726244830.573;350;17.25;40770.67
1726244830.624;350;17.26;40799.07
1726244830.673;350;16.79;39987.87
1726244830.724;350;16.79;39987.87
1726244830.773;350;16.79;39987.87
1726244830.823;350;16.79;39983.33
1726244830.874;350;17.41;41055.87
1726244830.923;350;17.41;41055.87
1726244830.973;350;17.41;41055.87
1726244831.025;350;17.29;40842.40
1726244831.074;350;15.43;37637.40
1726244831.124;350;15.43;37637.40
1726244831.174;350;15.43;37637.40
1726244831.225;350;16.81;40021.73
1726244831.274;350;15.04;36965.20
1726244831.324;350;15.04;36965.20
1726244831.374;350;15.04;36965.20
1726244831.425;350;17.29;40853.07
1726244831.475;350;13.78;34798.40
1726244831.526;350;13.78;34798.40
1726244831.575;350;13.78;34798.40
1726244831.626;350;16.20;38964.13
1726244831.676;350;14.50;36033.13
1726244831.727;350;14.50;36033.13
1726244831.777;350;14.50;36033.13
1726244831.827;350;15.82;38312.80
1726244831.877;350;17.19;40673.46
1726244831.927;350;17.19;40673.46
1726244831.977;350;17.19;40673.46
1726244832.028;350;17.34;40931.73
1726244832.078;350;15.45;37684.40
1726244832.128;350;15.45;37684.40
1726244832.178;350;15.45;37684.40
1726244832.228;350;14.58;36181.73
1726244832.278;350;13.61;34507.07
1726244832.328;350;13.61;34507.07
1726244832.379;350;13.61;34507.07
1726244832.429;350;14.77;36508.27
1726244832.479;350;14.48;36014.27
1726244832.529;350;14.48;36014.27
1726244832.579;350;14.48;36014.27
1726244832.629;350;15.35;37505.73
1726244832.680;350;17.22;40731.73
1726244832.729;350;17.22;40731.73
1726244832.779;350;17.22;40731.73
1726244832.829;350;17.32;40892.40
1726244832.979;350;17.43;41080.93
1726244992.690;58;30.00;34239.87
1726244992.739;60;30.00;34783.73
1726244992.790;60;30.00;34783.73
1726244992.840;60;30.00;34783.73
1726244992.890;62;30.00;35428.67
1726244992.940;68;30.00;37762.80
1726244992.991;68;30.00;37762.80
1726244993.042;68;30.00;37762.80
1726244993.091;70;30.00;38594.80
1726244993.142;71;30.00;39058.13
1726244993.192;71;30.00;38893.33
1726244993.241;71;30.00;38893.33
1726244993.292;71;30.00;38893.33
1726244993.342;60;30.00;34917.07
1726244993.392;61;30.00;35007.73
1726244993.442;61;30.00;35007.73
1726244993.491;61;30.00;35007.73
1726244993.792;61;30.00;35350.93
1726244993.842;61;30.00;35350.93
1726244993.892;59;30.00;34532.80
1726244993.941;60;30.00;34957.60
1726244993.992;60;30.00;34957.60
1726244994.042;60;30.00;34957.60
1726244994.092;59;30.00;34492.60
1726244994.142;74;30.00;39904.60
1726244994.192;74;30.00;39904.60
1726244994.242;74;30.00;39904.60
1726244994.292;73;30.00;39810.80
1726244994.342;60;30.00;34928.13
1726244994.392;60;30.00;34928.13
1726244994.442;60;30.00;34928.13
1726244994.492;65;30.00;36679.80
1726244995.143;60;30.00;34777.20
1726244995.192;60;30.00;34777.20
1726244995.243;60;30.00;34777.20
1726244995.343;72;30.00;39365.73
1726244995.393;72;30.00;39365.73
1726244995.442;72;30.00;39365.73
1726244995.492;72;30.00;39365.73
1726244995.944;65;30.00;36848.00
1726244995.996;65;30.00;36848.00
1726244996.046;65;30.00;36848.00
1726244996.096;61;30.00;35112.13
1726244996.146;68;30.00;37616.54
1726244996.195;68;30.00;37616.54
1726244996.246;68;30.00;37616.54
1726244996.296;75;30.00;40303.93
1726244996.346;68;30.00;37844.93
1726244996.395;68;30.00;37844.93
1726244996.446;68;30.00;37844.93
1726244996.497;74;30.00;39872.13
1726244996.547;59;30.00;34262.54
1726244996.597;59;30.00;34263.33
1726244996.646;59;30.00;34263.33
1726244996.697;60;30.00;34770.07
1726244996.949;59;30.00;34260.67
1726244996.999;59;30.00;34260.67
1726244997.049;59;30.00;34260.67
1726244997.099;61;30.00;35070.27
1726244997.148;69;30.00;38292.54
1726244997.199;69;30.00;38292.54
1726244997.248;69;30.00;38292.54
1726244997.349;67;30.00;37524.07
1726244997.399;67;30.00;37524.07
1726244997.448;67;30.00;37524.07
1726244997.549;76;30.00;40873.20
1726244997.599;76;30.00;40873.20
1726244997.650;76;30.00;40873.20
1726245010.169;62;30.00;35478.00
1726245010.219;62;30.00;35478.00
1726245010.269;62;30.00;35478.00
1726245010.319;59;30.00;34462.93
1726245010.369;73;30.00;39608.00
1726245010.419;73;30.00;39608.00
1726245010.469;73;30.00;39608.00
1726245010.519;73;30.00;39676.93
1726245010.569;75;30.00;40269.46
1726245010.618;75;30.00;40269.46
1726245010.671;75;30.00;40269.46
1726245010.721;75;30.00;40488.13
1726245010.770;73;30.00;39833.27
1726245010.821;73;30.00;39833.27
1726245010.871;73;30.00;39833.27
1726245010.921;73;30.00;39833.27
1726245010.972;69;30.00;38234.54
1726245011.021;69;30.00;38234.54
1726245011.071;69;30.00;38234.54
1726245011.121;59;30.00;34308.54
1726245011.172;74;30.00;39898.13
1726245011.222;74;30.00;39898.13
1726245011.271;74;30.00;39898.13
1726245011.323;74;30.00;39898.13
1726245011.372;79;30.00;41827.93
1726245011.422;79;30.00;41827.93
1726245011.473;79;30.00;41827.93
1726245011.523;77;30.00;41250.33
1726245011.573;75;30.00;40236.67
1726245011.623;60;30.00;34852.93
1726245011.673;60;30.00;34852.93
1726245011.723;60;30.00;34852.93
1726245011.773;73;30.00;39673.46
1726245011.823;69;30.00;38136.67
1726245011.874;60;30.00;34922.27
1726245011.924;60;30.00;34922.27
1726245011.974;60;30.00;34922.27
1726245012.024;63;30.00;36098.93
1726245012.074;67;30.00;37473.46
1726245012.124;67;30.00;37473.46
1726245012.174;67;30.00;37473.46
1726245012.225;73;30.00;39668.07
1726245012.274;67;30.00;37351.87
1726245012.324;67;30.00;37351.87
1726245012.374;67;30.00;37351.87
1726245012.425;72;30.00;39460.40
1726245012.478;65;30.00;36724.80
1726245012.525;65;30.00;36724.80
1726245012.576;65;30.00;36724.80
1726245012.626;71;30.00;38970.93
1726245012.676;62;30.00;35590.67
1726245012.726;62;30.00;35590.67
1726245012.776;62;30.00;35590.67
1726245012.826;65;30.00;36555.07
1726245012.876;70;30.00;38350.67
1726245012.926;70;30.00;38350.67
1726245012.976;70;30.00;38392.54
1726245013.026;70;30.00;38525.20
1726245013.227;59;30.00;34394.40
1726245013.276;60;30.00;34967.93
1726245013.326;60;30.00;34967.93
1726245013.377;61;30.00;35024.73
1726245013.426;59;30.00;34592.00
1726245013.477;70;30.00;38630.13
1726245013.527;70;30.00;38630.13
1726245013.576;70;30.00;38630.13
1726245013.627;73;30.00;39797.07
1726245013.678;65;30.00;36675.73
1726245013.729;59;30.00;34478.80
1726245013.779;59;30.00;34478.80
1726245013.829;59;30.00;34478.80
1726245013.879;72;30.00;39179.46
1726245013.929;63;30.00;35786.27
1726245013.979;63;30.00;35786.27
1726245014.028;63;30.00;35786.27
1726245014.078;70;30.00;38632.93
1726245014.128;73;30.00;39468.54
1726245014.178;74;30.00;39841.87
1726245014.229;74;30.00;39841.87
1726245014.278;74;30.00;39841.87
1726245014.330;72;30.00;39416.27
1726245014.379;58;30.00;34195.33
1726245014.429;58;30.00;34195.33
1726245014.479;58;30.00;34195.33
1726245014.529;60;30.00;34949.33
1726245014.580;67;30.00;37397.13
1726245014.629;67;30.00;37397.13
1726245014.680;67;30.00;37397.13
1726245014.729;74;30.00;40023.33
1726245014.930;62;30.00;35401.07
1726245014.980;62;30.00;35395.33
1726245015.030;62;30.00;35395.33
1726245015.082;62;30.00;35395.33
1726245015.131;69;30.00;38267.87
1726245015.181;60;30.00;34991.07
1726245015.232;60;30.00;34991.07
1726245015.281;62;30.00;35507.60
1726245015.332;71;30.00;38793.07
1726245015.532;77;30.00;41070.67
1726245028.109;60;30.00;34822.13
1726245028.159;61;30.00;35244.73
1726245028.210;59;30.00;34459.73
1726245028.259;59;30.00;34459.73
1726245028.310;59;30.00;34459.73
1726245028.361;73;30.00;39618.87
1726245028.411;72;30.00;39172.00
1726245028.460;72;30.00;39172.00
1726245028.511;72;30.00;39172.00
1726245028.561;66;30.00;37006.67
1726245028.611;67;30.00;37373.67
1726245028.661;67;30.00;37373.67
1726245028.711;63;30.00;36092.00
1726245028.762;62;30.00;35483.67
1726245028.811;66;30.00;37176.40
1726245028.861;66;30.00;37176.40
1726245028.963;63;30.00;36073.87
1726245029.013;63;30.00;36073.87
1726245029.063;63;30.00;36073.87
1726245029.113;70;30.00;38372.27
1726245029.163;62;30.00;35410.33
1726245029.213;60;30.00;34717.13
1726245029.263;60;30.00;34717.13
1726245029.313;60;30.00;34717.13
1726245029.363;68;30.00;37956.00
1726245029.414;74;30.00;40069.46
1726245029.464;74;30.00;40069.46
1726245029.514;74;30.00;40069.46
1726245029.764;76;30.00;40769.20
1726245029.814;59;30.00;34413.73
1726245029.864;59;30.00;34413.73
1726245029.915;59;30.00;34413.73
1726245029.964;66;30.00;37077.07
1726245030.014;76;30.00;40758.13
1726245030.064;76;30.00;40758.13
1726245030.114;76;30.00;40758.13
1726245030.164;64;30.00;36183.73
1726245030.215;58;30.00;34211.60
1726245030.264;58;30.00;34211.60
1726245030.314;58;30.00;34211.60
1726245030.364;59;30.00;34360.67
1726245030.415;64;30.00;36310.54
1726245030.464;64;30.00;36310.54
1726245030.514;64;30.00;36310.54
1726245030.566;64;30.00;36293.46
1726245030.616;74;30.00;39878.13
1726245030.666;74;30.00;39878.13
1726245030.716;74;30.00;39878.13
1726245030.816;59;30.00;34526.80
1726245030.865;59;30.00;34526.80
1726245030.916;59;30.00;34526.80
1726245030.965;64;30.00;36378.67
1726245031.166;66;30.00;37135.46
1726245031.216;66;30.00;37135.46
1726245031.266;66;30.00;37135.46
1726245031.316;60;30.00;34786.93
1726245031.366;61;30.00;35026.40
1726245031.416;61;30.00;35026.40
1726245031.466;61;30.00;35026.40
1726245031.566;75;30.00;40350.67
1726245031.616;75;30.00;40350.67
1726245031.666;75;30.00;40350.67
1726245031.767;61;30.00;35278.80
1726245031.817;61;30.00;35278.80
1726245031.867;61;30.00;35278.80
1726245031.967;59;30.00;34462.87
1726245032.017;59;30.00;34462.87
1726245032.067;59;30.00;34462.87
1726245032.168;58;30.00;34256.00
1726245032.218;58;30.00;34256.00
1726245032.268;58;30.00;34256.00
1726245032.319;74;30.00;40191.87
1726245032.369;64;30.00;36405.33
1726245032.569;63;30.00;35808.93
1726245032.620;59;30.00;34257.27
1726245032.669;59;30.00;34257.27
1726245032.719;59;30.00;34257.27
1726245032.770;59;30.00;34475.33
1726245032.871;74;30.00;39877.33
1726245032.921;74;30.00;39877.33
1726245032.972;74;30.00;39877.33
1726245033.021;61;30.00;35000.67
1726245033.222;68;30.00;37970.33
1726245291.002;58;40.00;34242.40
1726245291.203;60;40.00;34740.54
1726245291.252;61;40.00;35343.20
1726245291.303;61;40.00;35343.20
1726245291.353;61;40.00;35343.20
1726245291.452;77;40.00;41014.80
1726245291.503;77;40.00;41014.80
1726245291.553;77;40.00;41014.80
1726245291.603;59;40.00;34624.27
1726245291.653;74;40.00;39882.54
1726245291.704;74;40.00;39882.54
1726245291.754;74;40.00;39882.54
1726245291.853;68;40.00;37648.33
1726245291.904;68;40.00;37648.33
1726245291.953;68;40.00;37648.33
1726245292.003;68;40.00;37648.33
1726245292.055;77;40.00;40972.00
1726245292.255;67;40.00;37336.00
1726245292.505;76;40.00;40907.07
1726245292.556;59;40.00;34478.46
1726245292.606;59;40.00;34478.46
1726245292.656;59;40.00;34478.46
1726245292.756;70;40.00;38429.27
1726245292.807;70;40.00;38429.27
1726245292.856;70;40.00;38429.27
1726245292.958;76;40.00;40672.54
1726245293.008;76;40.00;40672.54
1726245293.058;76;40.00;40672.54
1726245293.158;74;40.00;40050.27
1726245293.208;74;40.00;40050.27
1726245293.260;74;40.00;40050.27
1726245293.359;77;40.00;40960.27
1726245293.410;77;40.00;40960.27
1726245293.460;77;40.00;40960.27
1726245293.510;64;40.00;36320.00
1726245293.560;63;40.00;35857.87
1726245293.610;63;40.00;35857.87
1726245293.660;63;40.00;35857.87
1726245293.709;73;40.00;39767.20
1726245293.760;73;40.00;39798.67
1726245293.810;73;40.00;39798.67
1726245293.860;73;40.00;39798.67
1726245293.910;58;40.00;34187.07
1726245293.960;60;40.00;34896.67
1726245294.011;60;40.00;34896.67
1726245294.061;60;40.00;34896.67
1726245294.161;73;40.00;39672.73
1726245294.211;73;40.00;39672.73
1726245294.261;73;40.00;39672.73
1726245294.311;73;40.00;39672.73
1726245294.361;73;40.00;39772.00
1726245294.411;74;40.00;40068.93
1726245294.461;74;40.00;40068.93
1726245294.511;74;40.00;40068.93
1726245294.561;76;40.00;40699.60
1726245294.612;74;40.00;39864.00
1726245294.661;74;40.00;39864.00
1726245294.711;74;40.00;39864.00
1726245294.812;63;40.00;35941.93
1726245294.861;63;40.00;35941.93
1726245294.911;63;40.00;35941.93
1726245294.961;66;40.00;37112.40
1726245295.012;66;40.00;37112.40
1726245295.061;66;40.00;37112.40
1726245295.112;66;40.00;37112.40
1726245295.361;61;40.00;35057.80
1726245295.411;59;40.00;34396.40
1726245295.461;59;40.00;34396.40
1726245295.511;59;40.00;34396.40
1726245295.562;70;40.00;38428.67
1726245295.612;70;40.00;38428.67
1726245295.661;70;40.00;38428.67
1726245295.711;70;40.00;38428.67
1726245295.762;61;40.00;35343.33
1726245295.812;62;40.00;35581.07
1726245295.861;62;40.00;35581.07
1726245295.912;70;40.00;38634.40
1726245295.962;67;40.00;37466.00
1726245296.012;67;40.00;37466.00
1726245296.062;67;40.00;37466.00
1726245296.112;67;40.00;37466.00
1726245296.162;60;40.00;34818.00
1726245296.212;60;40.00;34818.00
1726245296.262;60;40.00;34818.00
1726245296.312;61;40.00;35314.13
1726245296.362;66;40.00;36883.73
1726245296.413;61;40.00;35024.00
1726245309.059;61;40.00;35059.87
1726245309.108;60;40.00;34890.80
1726245309.159;60;40.00;34890.80
1726245309.208;61;40.00;35131.87
1726245309.259;68;40.00;37655.46
1726245309.308;61;40.00;35019.73
1726245309.358;61;40.00;35019.73
1726245309.409;61;40.00;35019.73
1726245309.458;72;40.00;39189.87
1726245309.509;75;40.00;40412.93
1726245309.558;75;40.00;40412.93
1726245309.608;75;40.00;40412.93
1726245309.659;70;40.00;38411.46
1726245309.709;63;40.00;35762.00
1726245309.759;63;40.00;35762.00
1726245309.810;63;40.00;35762.00
1726245309.860;72;40.00;39248.67
1726245309.910;68;40.00;37604.54
1726245309.959;68;40.00;37604.54
1726245310.010;68;40.00;37604.54
1726245310.061;61;40.00;35236.67
1726245310.111;76;40.00;40816.27
1726245310.161;76;40.00;40816.27
1726245310.212;76;40.00;40816.27
1726245310.262;61;40.00;35256.27
1726245310.311;71;40.00;38959.73
1726245310.362;71;40.00;38959.73
1726245310.411;71;40.00;38959.73
1726245310.461;71;40.00;38959.73
1726245310.511;74;40.00;39921.87
1726245310.561;63;40.00;35759.80
1726245310.611;63;40.00;35759.80
1726245310.662;63;40.00;35759.80
1726245310.712;59;40.00;34537.93
1726245310.768;71;40.00;38991.20
1726245310.816;73;40.00;39697.67
1726245310.865;73;40.00;39697.67
1726245310.916;73;40.00;39697.67
1726245310.965;65;40.00;36561.20
1726245311.016;74;40.00;39962.67
1726245311.066;74;40.00;39962.67
1726245311.117;74;40.00;39962.67
1726245311.167;66;40.00;37187.60
1726245311.216;62;40.00;35462.40
1726245311.267;62;40.00;35462.40
1726245311.317;62;40.00;35462.40
1726245311.366;65;40.00;36569.73
1726245311.417;67;40.00;37343.60
1726245311.467;67;40.00;37343.60
1726245311.518;67;40.00;37343.60
1726245311.568;72;40.00;39243.46
1726245311.619;68;40.00;37858.13
1726245311.669;68;40.00;37858.13
1726245311.719;68;40.00;37858.13
1726245311.769;75;40.00;40213.73
1726245311.820;71;40.00;38814.00
1726245311.869;71;40.00;38814.00
1726245311.919;71;40.00;38814.00
1726245311.969;78;40.00;41487.27
1726245312.019;72;40.00;39364.13
1726245312.070;72;40.00;39364.13
1726245312.120;72;40.00;39364.13
1726245312.170;73;40.00;39614.00
1726245312.219;75;40.00;40421.20
1726245312.270;75;40.00;40421.20
1726245312.320;75;40.00;40421.20
1726245312.370;75;40.00;40421.20
1726245312.420;62;40.00;35566.13
1726245312.470;68;40.00;37779.07
1726245312.520;68;40.00;37779.07
1726245312.570;68;40.00;37779.07
1726245312.671;60;40.00;34659.07
1726245312.721;60;40.00;34659.07
1726245312.771;60;40.00;34659.07
1726245312.820;74;40.00;40125.87
1726245312.873;73;40.00;39637.33
1726245312.922;71;40.00;38964.13
1726245312.972;71;40.00;38964.13
1726245313.023;71;40.00;38964.13
1726245313.073;70;40.00;38374.93
1726245313.123;62;40.00;35740.54
1726245313.174;62;40.00;35740.54
1726245313.224;62;40.00;35740.54
1726245313.324;60;40.00;34658.80
1726245313.374;59;40.00;34385.60
1726245313.424;59;40.00;34385.60
1726245313.475;59;40.00;34385.60
1726245313.525;59;40.00;34599.33
1726245313.574;71;40.00;38739.60
1726245313.625;72;40.00;39144.40
1726245313.675;72;40.00;39144.40
1726245313.725;71;40.00;38992.40
1726245313.775;67;40.00;37576.13
1726245313.824;70;40.00;38620.00
1726245313.875;70;40.00;38620.00
1726245313.925;68;40.00;37871.73
1726245313.976;59;40.00;34504.00
1726245314.027;60;40.00;34938.67
1726245314.077;60;40.00;34938.67
1726245314.127;61;40.00;35182.80
1726245314.177;62;40.00;35475.60
1726245314.227;62;40.00;35475.60
1726245314.277;62;40.00;35475.60
1726245314.328;62;40.00;35619.87
1726245314.377;60;40.00;34989.73
1726245327.238;60;40.00;34916.93
1726245327.288;67;40.00;37378.00
1726245327.338;67;40.00;37378.00
1726245327.390;67;40.00;37378.00
1726245327.440;62;40.00;35576.00
1726245327.490;62;40.00;35395.33
1726245327.540;66;40.00;37012.00
1726245327.589;66;40.00;37012.00
1726245327.639;66;40.00;37012.00
1726245327.690;79;40.00;41813.33
1726245327.739;64;40.00;36153.46
1726245327.790;64;40.00;36153.46
1726245327.840;64;40.00;36153.46
1726245327.890;64;40.00;36153.46
1726245327.941;67;40.00;37327.07
1726245327.991;65;40.00;36559.20
1726245328.041;65;40.00;36559.20
1726245328.090;65;40.00;36559.20
1726245328.141;68;40.00;37680.13
1726245328.191;69;40.00;38098.80
1726245328.241;69;40.00;38098.80
1726245328.291;69;40.00;38098.80
1726245328.341;68;40.00;37953.60
1726245328.391;68;40.00;37971.73
1726245328.441;68;40.00;37971.73
1726245328.491;68;40.00;37971.73
1726245328.591;75;40.00;40228.00
1726245328.641;75;40.00;40228.00
1726245328.691;75;40.00;40228.00
1726245328.791;70;40.00;38706.40
1726245328.841;70;40.00;38706.40
1726245328.891;70;40.00;38706.40
1726245328.991;59;40.00;34579.73
1726245329.041;60;40.00;34799.73
1726245329.092;60;40.00;34799.73
1726245329.142;60;40.00;34798.40
1726245329.192;72;40.00;39272.93
1726245329.242;60;40.00;34833.33
1726245329.292;60;40.00;34833.33
1726245329.342;60;40.00;34833.33
1726245329.392;70;40.00;38432.93
1726245329.443;68;40.00;37693.00
1726245329.493;68;40.00;37693.00
1726245329.542;68;40.00;37693.00
1726245329.594;67;40.00;37603.87
1726245329.643;67;40.00;37603.87
1726245329.695;67;40.00;37603.87
1726245329.744;60;40.00;34649.27
1726245329.799;66;40.00;36957.27
1726245329.847;59;40.00;34519.80
1726245329.897;59;40.00;34519.80
1726245329.947;59;40.00;34519.80
1726245329.997;74;40.00;40118.40
1726245330.047;68;40.00;37957.07
1726245330.097;68;40.00;37957.07
1726245330.147;68;40.00;37957.07
1726245330.246;70;40.00;38664.07
1726245330.296;70;40.00;38664.07
1726245330.347;70;40.00;38635.40
1726245330.397;60;40.00;34898.67
1726245330.447;61;40.00;35116.20
1726245330.497;61;40.00;35116.20
1726245330.547;61;40.00;35116.20
1726245330.597;67;40.00;37436.67
1726245330.647;70;40.00;38469.73
1726245330.697;70;40.00;38469.73
1726245330.747;70;40.00;38601.73
1726245330.797;61;40.00;35189.33
1726245330.846;63;40.00;35864.54
1726245330.898;63;40.00;35864.54
1726245330.948;72;40.00;39168.20
1726245330.998;60;40.00;34636.60
1726245331.048;61;40.00;35096.13
1726245331.098;61;40.00;35096.13
1726245331.148;61;40.00;35096.13
1726245331.198;72;40.00;39113.46
1726245331.398;76;40.00;40585.60
1726245331.448;60;40.00;34696.80
1726245331.497;60;40.00;34696.80
1726245331.548;60;40.00;34696.80
1726245331.597;77;40.00;41082.67
1726245331.648;75;40.00;40287.60
1726245331.698;75;40.00;40287.60
1726245331.748;75;40.00;40287.60
1726245331.798;65;40.00;36497.20
1726245331.848;65;40.00;36497.20
1726245331.898;65;40.00;36497.20
1726245331.948;75;40.00;40558.80
1726245331.997;63;40.00;35998.00
1726245623.427;69;20.00;38045.20
1726245623.479;63;20.00;35804.00
1726245623.529;63;20.00;35804.00
1726245623.580;63;20.00;35804.00
1726245623.630;59;20.00;34520.73
1726245623.679;68;20.00;37945.54
1726245623.729;68;20.00;37945.54
1726245623.780;68;20.00;37945.54
1726245623.830;65;20.00;36610.27
1726245623.879;65;20.00;36784.93
1726245623.929;65;20.00;36784.93
1726245623.979;66;20.00;37129.20
1726245624.030;76;20.00;40619.13
1726245624.080;70;20.00;38541.80
1726245624.131;70;20.00;38541.80
1726245624.181;64;20.00;36361.33
1726245624.231;72;20.00;39166.07
1726245624.281;72;20.00;39166.07
1726245624.331;72;20.00;39166.07
1726245624.381;60;20.00;34807.60
1726245624.431;65;20.00;36816.80
1726245624.481;71;20.00;38726.40
1726245624.531;71;20.00;38726.40
1726245624.583;71;20.00;38726.40
1726245624.637;67;20.00;37257.87
1726245624.684;59;20.00;34497.33
1726245624.735;59;20.00;34497.33
1726245624.784;59;20.00;34497.33
1726245624.835;59;20.00;34398.13
1726245624.885;72;20.00;39428.67
1726245624.935;60;20.00;34706.93
1726245624.985;60;20.00;34706.93
1726245625.035;60;20.00;34706.93
1726245625.085;66;20.00;36914.13
1726245625.135;66;20.00;37037.80
1726245625.185;66;20.00;37037.80
1726245625.235;66;20.00;37037.80
1726245625.285;64;20.00;36436.20
1726245625.335;73;20.00;39552.13
1726245625.385;73;20.00;39552.13
1726245625.435;73;20.00;39552.13
1726245625.485;74;20.00;40082.93
1726245625.536;72;20.00;39224.13
1726245625.586;69;20.00;38084.67
1726245625.637;69;20.00;38084.67
1726245625.686;65;20.00;36568.67
1726245625.738;68;20.00;37889.20
1726245625.787;71;20.00;39071.33
1726245625.838;71;20.00;39071.33
1726245625.887;71;20.00;39071.33
1726245625.938;61;20.00;35279.20
1726245625.987;66;20.00;37214.27
1726245626.038;64;20.00;36321.60
1726245626.088;64;20.00;36321.60
1726245626.138;64;20.00;36321.60
1726245626.188;67;20.00;37264.67
1726245626.238;65;20.00;36680.54
1726245626.288;65;20.00;36680.54
1726245626.339;65;20.00;36680.54
1726245626.389;60;20.00;34791.73
1726245626.438;68;20.00;37771.60
1726245626.488;71;20.00;38995.07
1726245626.538;71;20.00;38995.07
1726245626.589;66;20.00;37191.87
1726245626.640;64;20.00;36220.00
1726245626.689;62;20.00;35648.27
1726245626.740;62;20.00;35648.27
1726245626.790;62;20.00;35648.27
1726245626.840;62;20.00;35735.33
1726245626.890;74;20.00;40198.54
1726245626.941;74;20.00;40198.54
1726245626.991;74;20.00;40198.54
1726245627.041;66;20.00;37180.80
1726245627.092;70;20.00;38617.13
1726245627.142;70;20.00;38617.13
1726245627.194;70;20.00;38617.13
1726245627.252;71;20.00;38823.33
1726245627.299;68;20.00;37689.87
1726245627.349;68;20.00;37689.87
1726245627.399;68;20.00;37689.87
1726245627.449;73;20.00;39556.54
1726245627.499;65;20.00;36620.13
1726245627.549;65;20.00;36620.13
1726245627.599;65;20.00;36620.13
1726245627.650;65;20.00;36620.13
1726245627.699;61;20.00;35308.13
1726245627.750;65;20.00;36594.80
1726245627.799;68;20.00;37936.13
1726245627.850;68;20.00;37936.13
1726245627.901;70;20.00;38471.20
1726245627.951;72;20.00;39144.93
1726245628.000;68;20.00;37907.46
1726245628.051;68;20.00;37907.46
1726245628.101;68;20.00;37907.46
1726245628.151;69;20.00;38286.54
1726245628.201;63;20.00;35861.07
1726245628.251;63;20.00;35861.07
1726245628.301;63;20.00;35861.07
1726245628.351;60;20.00;34955.13
1726245628.401;66;20.00;37186.33
1726245628.451;66;20.00;37186.33
1726245628.502;66;20.00;37186.33
1726245628.551;67;20.00;37502.40
1726245628.601;72;20.00;39295.40
1726245628.651;72;20.00;39295.40
1726245628.701;72;20.00;39295.40
1726245628.751;72;20.00;39295.40
1726245628.801;64;20.00;36357.60
1726245641.677;60;20.00;34671.33
1726245641.827;60;20.00;34659.07
1726245641.876;59;20.00;34294.33
1726245641.926;59;20.00;34294.33
1726245641.977;59;20.00;34294.33
1726245642.076;71;20.00;39040.93
1726245642.126;71;20.00;39040.93
1726245642.176;71;20.00;38969.73
1726245642.227;72;20.00;39378.07
1726245642.276;72;20.00;39378.07
1726245642.326;72;20.00;39378.07
1726245642.378;72;20.00;39378.07
1726245642.428;73;20.00;39640.93
1726245642.478;58;20.00;34182.93
1726245642.527;58;20.00;34182.93
1726245642.578;58;20.00;34182.93
1726245642.629;69;20.00;38173.33
1726245642.678;69;20.00;38175.67
1726245642.728;69;20.00;38175.67
1726245642.778;69;20.00;38175.67
1726245642.829;63;20.00;35862.93
1726245642.878;69;20.00;38339.00
1726245642.929;69;20.00;38339.00
1726245642.979;69;20.00;38339.00
1726245643.029;59;20.00;34363.33
1726245643.079;59;20.00;34397.20
1726245643.129;59;20.00;34397.20
1726245643.179;59;20.00;34397.20
1726245643.229;72;20.00;39307.07
1726245643.781;59;20.00;34423.33
1726245643.831;59;20.00;34423.33
1726245643.881;59;20.00;34423.33
1726245643.981;66;20.00;37012.67
1726245644.031;66;20.00;37012.67
1726245644.081;66;20.00;37012.67
1726245644.131;59;20.00;34505.60
1726245644.181;60;20.00;34713.33
1726245644.231;60;20.00;34713.33
1726245644.281;60;20.00;34742.40
1726245644.331;61;20.00;35140.27
1726245644.381;62;20.00;35702.00
1726245644.431;62;20.00;35702.00
1726245644.481;62;20.00;35702.00
1726245644.531;73;20.00;39631.20
1726245644.581;75;20.00;40331.20
1726245644.631;75;20.00;40331.20
1726245644.681;75;20.00;40331.20
1726245644.731;75;20.00;40461.67
1726245644.781;66;20.00;37220.80
1726245644.831;67;20.00;37501.87
1726245644.881;67;20.00;37501.87
1726245644.931;67;20.00;37501.87
1726245644.981;71;20.00;38729.54
1726245645.031;66;20.00;37152.13
1726245645.081;66;20.00;37152.13
1726245645.131;66;20.00;37152.13
1726245645.182;67;20.00;37532.54
1726245645.232;69;20.00;38242.13
1726245645.282;69;20.00;38242.13
1726245645.332;69;20.00;38184.54
1726245645.382;65;20.00;36530.80
1726245645.432;65;20.00;36530.80
1726245645.482;65;20.00;36530.80
1726245645.532;60;20.00;34934.33
1726245645.582;73;20.00;39628.40
1726245645.633;73;20.00;39628.40
1726245645.683;73;20.00;39628.40
1726245645.733;64;20.00;36389.00
1726245645.782;72;20.00;39407.73
1726245645.833;72;20.00;39407.73
1726245645.883;72;20.00;39407.73
1726245645.934;76;20.00;40639.20
1726245645.984;61;20.00;35298.00
1726245646.033;73;20.00;39830.00
1726245646.083;73;20.00;39830.00
1726245646.133;73;20.00;39830.00
1726245646.183;66;20.00;36917.73
1726245646.233;70;20.00;38710.87
1726245646.283;70;20.00;38710.87
1726245646.333;70;20.00;38710.87
1726245646.383;69;20.00;38165.07
1726245646.434;69;20.00;38165.07
1726245646.483;69;20.00;38165.07
1726245646.534;70;20.00;38369.80
1726245646.583;69;20.00;38272.27
1726245646.634;69;20.00;38272.27
1726245646.684;69;20.00;38272.27
1726245646.734;70;20.00;38479.46
1726245659.377;59;20.00;34282.54
1726245659.429;60;20.00;34778.00
1726245659.478;60;20.00;34778.00
1726245659.530;60;20.00;34778.00
1726245659.630;64;20.00;36194.27
1726245659.680;64;20.00;36194.27
1726245659.730;64;20.00;36194.27
1726245659.780;58;20.00;34233.46
1726245659.830;72;20.00;39160.54
1726245659.880;72;20.00;39160.54
1726245659.931;72;20.00;39160.54
1726245659.981;70;20.00;38586.67
1726245660.031;64;20.00;36404.60
1726245660.081;64;20.00;36404.60
1726245660.131;69;20.00;38103.00
1726245660.181;73;20.00;39761.20
1726245660.231;59;20.00;34604.80
1726245660.281;59;20.00;34604.80
1726245660.331;60;20.00;34852.67
1726245660.381;73;20.00;39741.73
1726245660.431;64;20.00;36161.07
1726245660.481;64;20.00;36161.07
1726245660.531;64;20.00;36161.07
1726245660.581;74;20.00;39964.40
1726245660.631;70;20.00;38680.80
1726245660.681;70;20.00;38680.80
1726245660.731;70;20.00;38680.80
1726245660.781;60;20.00;34672.67
1726245660.831;64;20.00;36320.93
1726245660.881;64;20.00;36320.93
1726245660.931;64;20.00;36320.93
1726245660.981;60;20.00;34874.40
1726245661.031;72;20.00;39257.20
1726245661.082;72;20.00;39257.20
1726245661.132;72;20.00;39257.20
1726245661.181;70;20.00;38651.40
1726245661.232;69;20.00;38259.46
1726245661.281;69;20.00;38259.46
1726245661.331;69;20.00;38259.46
1726245661.381;60;20.00;34762.27
1726245661.431;72;20.00;39346.60
1726245661.481;72;20.00;39346.60
1726245661.531;72;20.00;39346.60
1726245661.581;72;20.00;39174.40
1726245661.631;74;20.00;40048.80
1726245661.681;74;20.00;40048.80
1726245661.731;74;20.00;40048.80
1726245661.782;65;20.00;36502.80
1726245661.831;67;20.00;37236.00
1726245661.882;67;20.00;37236.00
1726245661.931;71;20.00;38972.27
1726245661.982;70;20.00;38680.67
1726245662.031;70;20.00;38680.67
1726245662.081;70;20.00;38680.67
1726245662.131;69;20.00;38094.67
1726245662.181;59;20.00;34284.00
1726245662.231;59;20.00;34284.00
1726245662.281;59;20.00;34284.00
1726245662.331;69;20.00;38112.13
1726245662.381;59;20.00;34594.67
1726245662.431;59;20.00;34594.67
1726245662.482;59;20.00;34594.67
1726245662.531;63;20.00;36110.13
1726245662.582;71;20.00;38815.27
1726245662.631;71;20.00;38815.27
1726245662.681;71;20.00;38815.27
1726245662.731;73;20.00;39489.73
1726245662.782;67;20.00;37484.33
1726245662.832;72;20.00;39194.40
1726245662.882;74;20.00;40079.73
1726245662.931;74;20.00;40079.73
1726245662.982;74;20.00;40079.73
1726245663.032;60;20.00;34833.67
1726245663.082;61;20.00;35315.33
1726245663.132;61;20.00;35315.33
1726245663.182;61;20.00;35315.33
1726245663.232;75;20.00;40495.00
1726245663.283;71;20.00;38938.07
1726245663.332;71;20.00;38938.07
1726245663.382;71;20.00;38938.07
1726245663.432;72;20.00;39288.27
1726245663.482;72;20.00;39288.27
1726245663.531;72;20.00;39288.27
1726245663.582;72;20.00;39288.27
1726245663.633;60;20.00;34916.40
1726245663.683;62;20.00;35702.54
1726245663.733;62;20.00;35702.54
1726245663.783;62;20.00;35702.54
1726245663.833;67;20.00;37342.13
1726245663.889;61;20.00;35175.87
1726245663.936;61;20.00;35175.87
1726245663.987;61;20.00;35175.87
1726245664.037;73;20.00;39466.67
1726245664.087;61;20.00;35111.87
1726245664.136;66;20.00;37197.80
1726245664.188;66;20.00;37197.80
1726245664.238;66;20.00;37197.80
1726245664.288;61;20.00;35328.80
1726245664.338;72;20.00;39200.00
1726245664.388;72;20.00;39200.00
1726245664.438;72;20.00;39200.00
1726245664.487;75;20.00;40246.67
1726245664.538;74;20.00;40081.07
1726245664.587;74;20.00;40081.07
1726245664.638;64;20.00;36310.67
1726245664.688;61;20.00;35307.60
1726245807.887;500;13.52;34354.13
1726245807.936;500;13.52;34354.13
1726245807.986;500;13.52;34354.13
1726245808.036;500;13.47;34268.13
1726245808.086;500;14.89;36710.40
1726245808.136;500;14.89;36710.40
1726245808.186;500;15.45;37673.60
1726245808.236;500;16.96;40279.46
1726245808.287;500;16.96;40279.46
1726245808.337;500;16.96;40279.46
1726245808.386;500;17.05;40424.40
1726245808.437;500;16.86;40111.73
1726245808.487;500;16.86;40111.73
1726245808.537;500;16.86;40111.73
1726245808.588;500;17.16;40623.87
1726245808.637;500;16.67;39770.13
1726245808.687;500;16.67;39770.13
1726245808.737;500;16.30;39142.27
1726245808.787;500;15.41;37606.00
1726245808.837;500;15.41;37606.00
1726245808.888;500;15.41;37606.00
1726245808.937;500;15.41;37606.00
1726245808.989;500;13.77;34779.73
1726245809.039;500;17.10;40527.20
1726245809.089;500;17.10;40527.20
1726245809.138;500;17.10;40527.20
1726245809.189;500;17.36;40973.60
1726245809.238;500;17.36;40963.20
1726245809.289;500;17.04;40412.80
1726245809.339;500;17.04;40412.80
1726245809.390;500;17.04;40412.80
1726245809.439;500;16.83;40055.60
1726245809.490;500;17.31;40876.00
1726245809.540;500;17.31;40876.00
1726245809.590;500;17.31;40876.00
1726245809.641;500;17.10;40512.40
1726245809.691;500;17.48;41168.00
1726245809.741;500;17.48;41168.00
1726245809.791;500;17.48;41168.00
1726245809.841;500;13.77;34790.46
1726245809.891;500;13.60;34496.93
1726245809.941;500;13.60;34496.93
1726245809.992;500;13.89;34984.00
1726245810.042;500;16.55;39577.54
1726245810.093;500;13.96;35110.40
1726245810.142;500;13.96;35110.40
1726245810.193;500;13.96;35110.40
1726245810.242;500;17.11;40534.80
1726245810.293;500;17.11;40534.80
1726245810.342;500;17.11;40534.80
1726245810.393;500;17.11;40534.80
1726245810.442;500;16.87;40120.00
1726245810.492;500;16.87;40120.00
1726245810.544;500;16.87;40120.00
1726245810.594;500;16.87;40120.00
1726245810.643;500;14.37;35815.33
1726245810.694;500;17.39;41024.54
1726245810.744;500;17.39;41024.54
1726245810.794;500;16.71;39843.60
1726245810.844;500;17.11;40537.46
1726245810.894;500;15.31;37433.87
1726245810.944;500;15.31;37433.87
1726245810.994;500;15.31;37433.87
1726245811.044;500;13.94;35075.60
1726245811.094;500;13.94;35075.60
1726245811.145;500;13.94;35075.60
1726245811.195;500;13.94;35075.60
1726245811.247;500;17.16;40628.00
1726245811.295;500;17.21;40713.20
1726245811.345;500;17.21;40713.20
1726245811.395;500;17.21;40713.20
1726245811.445;500;14.54;36117.46
1726245811.496;500;15.08;37040.80
1726245811.545;500;13.59;34471.46
1726245811.595;500;13.59;34471.46
1726245811.645;500;13.59;34471.46
1726245811.695;500;16.43;39361.20
1726245811.746;500;14.44;35944.67
1726245811.797;500;14.44;35944.67
1726245811.846;500;14.44;35944.67
1726245811.896;500;14.44;35944.67
1726245811.947;500;17.45;41116.00
1726245811.997;500;16.79;39980.93
1726245812.046;500;16.79;39980.93
1726245812.096;500;16.79;39980.93
1726245812.147;500;17.63;41433.07
1726245812.197;500;17.63;41433.07
1726245812.247;500;17.63;41433.07
1726245812.296;500;17.63;41433.07
1726245812.347;500;16.67;39784.46
1726245812.396;500;16.78;39961.33
1726245812.447;500;16.78;39961.33
1726245812.497;500;16.78;39961.33
1726245812.548;500;15.38;37552.27
1726245812.598;500;14.04;35245.33
1726245812.649;500;14.04;35245.33
1726245812.698;500;14.04;35245.33
1726245812.749;500;16.12;38830.80
1726245812.800;500;15.78;38250.54
1726245812.850;500;15.78;38250.54
1726245812.900;500;14.92;36756.20
1726245812.949;500;13.61;34502.54
1726245826.185;500;13.91;35030.46
1726245826.236;500;14.19;35499.60
1726245826.286;500;14.41;35882.54
1726245826.336;500;14.41;35882.54
1726245826.387;500;14.41;35882.54
1726245826.437;500;16.91;40189.80
1726245826.487;500;16.00;38619.00
1726245826.537;500;16.00;38619.00
1726245826.588;500;16.00;38619.00
1726245826.637;500;16.86;40108.40
1726245826.688;500;14.70;36390.60
1726245826.738;500;14.70;36390.60
1726245826.787;500;14.70;36390.60
1726245826.838;500;14.35;35787.46
1726245826.888;500;14.29;35670.54
1726245826.938;500;14.29;35670.54
1726245826.987;500;14.29;35670.54
1726245827.038;500;15.45;37678.80
1726245827.088;500;16.10;38797.67
1726245827.137;500;16.10;38797.67
1726245827.188;500;16.10;38797.67
1726245827.238;500;17.63;41426.93
1726245827.292;500;17.19;40668.00
1726245827.340;500;16.98;40320.00
1726245827.390;500;16.98;40320.00
1726245827.440;500;16.98;40320.00
1726245827.489;500;16.93;40217.54
1726245827.539;500;14.48;36006.40
1726245827.590;500;17.00;40346.93
1726245827.640;500;17.00;40346.93
1726245827.689;500;17.00;40346.93
1726245827.739;500;17.34;40932.27
1726245827.791;500;17.24;40753.87
1726245827.841;500;17.24;40753.87
1726245827.891;500;17.24;40753.87
1726245827.941;500;17.16;40625.87
1726245827.991;500;17.16;40625.87
1726245828.041;500;17.16;40625.87
1726245828.091;500;17.64;41440.27
1726245828.141;500;14.53;36091.40
1726245828.191;500;15.27;37375.07
1726245828.242;500;15.27;37375.07
1726245828.292;500;15.27;37375.07
1726245828.341;500;17.14;40580.13
1726245828.392;500;17.04;40411.46
1726245828.442;500;17.95;41989.60
1726245828.492;500;17.95;41989.60
1726245828.542;500;17.95;41989.60
1726245828.592;500;14.46;35972.46
1726245828.642;500;16.81;40013.07
1726245828.693;500;16.10;38794.40
1726245828.743;500;16.10;38794.40
1726245828.792;500;16.74;39902.67
1726245828.843;500;17.06;40458.00
1726245828.894;500;15.94;38520.73
1726245828.943;500;15.94;38520.73
1726245828.993;500;15.94;38520.73
1726245829.044;500;15.13;37133.33
1726245829.093;500;17.10;40523.73
1726245829.144;500;17.10;40523.73
1726245829.194;500;17.10;40523.73
1726245829.244;500;17.29;40851.40
1726245829.293;500;17.07;40458.54
1726245829.344;500;17.07;40458.54
1726245829.394;500;17.07;40458.54
1726245829.445;500;13.63;34545.60
1726245829.495;500;17.24;40753.73
1726245829.544;500;17.24;40753.73
1726245829.594;500;17.24;40753.73
1726245829.645;500;14.19;35512.40
1726245829.695;500;17.01;40370.93
1726245829.746;500;17.01;40370.93
1726245829.796;500;17.01;40370.93
1726245829.846;500;17.16;40623.87
1726245829.896;500;17.07;40472.27
1726245829.947;500;17.07;40472.27
1726245829.997;500;16.89;40162.40
1726245830.047;500;17.01;40368.13
1726245830.098;500;14.30;35691.13
1726245830.147;500;14.30;35691.13
1726245830.198;500;14.91;36750.80
1726245830.249;500;15.71;38120.46
1726245830.299;500;14.12;35379.87
1726245830.349;500;14.12;35379.87
1726245830.398;500;14.12;35379.87
1726245830.449;500;15.17;37196.13
1726245830.500;500;14.11;35371.40
1726245830.549;500;14.11;35371.40
1726245830.600;500;14.11;35371.40
1726245830.649;500;16.21;38980.40
1726245830.699;500;13.95;35089.07
1726245830.751;500;13.95;35089.07
1726245830.801;500;13.95;35089.07
1726245830.851;500;15.46;37694.27
1726245830.901;500;17.07;40469.80
1726245830.951;500;17.07;40469.80
1726245831.001;500;17.07;40469.80
1726245831.051;500;17.17;40647.46
1726245831.101;500;16.68;39798.00
1726245831.152;500;16.68;39798.00
1726245831.202;500;16.68;39798.00
1726245831.251;500;17.51;41223.46
1726245831.302;500;14.52;36083.33
1726245831.352;500;14.52;36083.33
1726245831.403;500;14.52;36083.33
1726245831.452;500;15.56;37864.80
1726245843.832;500;13.50;34317.33
1726245843.883;500;13.50;34317.33
1726245843.932;500;13.50;34317.33
1726245843.982;500;13.96;35114.46
1726245844.033;500;13.96;35114.46
1726245844.084;500;13.96;35114.46
1726245844.133;500;14.58;36170.00
1726245844.184;500;17.00;40343.73
1726245844.234;500;17.00;40343.73
1726245844.285;500;17.00;40343.73
1726245844.335;500;16.33;39194.40
1726245844.386;500;16.86;40109.33
1726245844.435;500;16.86;40109.33
1726245844.485;500;16.86;40109.33
1726245844.535;500;17.13;40565.20
1726245844.585;500;15.14;37146.40
1726245844.636;500;15.14;37146.40
1726245844.686;500;15.14;37146.40
1726245844.736;500;15.14;37146.40
1726245844.785;500;17.07;40465.46
1726245844.835;500;16.57;39604.54
1726245844.885;500;16.57;39604.54
1726245844.936;500;16.57;39604.54
1726245844.985;500;16.03;38673.73
1726245845.037;500;14.42;35900.80
1726245845.087;500;14.42;35900.80
1726245845.136;500;13.79;34818.00
1726245845.187;500;17.40;41028.54
1726245845.238;500;17.40;41028.54
1726245845.288;500;17.40;41028.54
1726245845.338;500;17.02;40376.80
1726245845.388;500;17.07;40461.73
1726245845.438;500;17.07;40461.73
1726245845.488;500;17.07;40461.73
1726245845.537;500;17.07;40461.73
1726245845.588;500;13.95;35098.60
1726245845.638;500;13.95;35098.60
1726245845.688;500;13.95;35098.60
1726245845.737;500;13.95;35098.60
1726245845.788;500;15.96;38550.93
1726245845.838;500;14.67;36338.80
1726245845.887;500;14.67;36338.80
1726245845.939;500;14.67;36338.80
1726245845.988;500;16.62;39683.33
1726245846.039;500;17.14;40581.60
1726245846.088;500;13.45;34232.27
1726245846.139;500;13.45;34232.27
1726245846.189;500;13.45;34232.27
1726245846.238;500;14.25;35608.27
1726245846.289;500;15.73;38151.20
1726245846.339;500;15.73;38151.20
1726245846.389;500;15.73;38151.20
1726245846.439;500;15.73;38151.20
1726245846.489;500;17.49;41182.93
1726245846.540;500;16.90;40179.67
1726245846.589;500;16.90;40179.67
1726245846.639;500;16.90;40179.67
1726245846.689;500;15.91;38464.93
1726245846.740;500;16.55;39577.07
1726245846.789;500;16.55;39577.07
1726245846.840;500;14.02;35210.67
1726245846.890;500;15.77;38227.46
1726245846.940;500;15.77;38227.46
1726245846.990;500;15.77;38227.46
1726245847.040;500;15.77;38227.46
1726245847.089;500;15.94;38513.46
1726245847.140;500;15.94;38513.46
1726245847.190;500;15.94;38513.46
1726245847.241;500;17.13;40570.00
1726245847.291;500;13.80;34839.54
1726245847.341;500;13.90;34999.87
1726245847.391;500;14.41;35877.07
1726245847.441;500;14.41;35877.07
1726245847.491;500;14.41;35877.07
1726245847.541;500;14.41;35877.07
1726245847.591;500;17.30;40865.60
1726245847.641;500;14.62;36238.67
1726245847.691;500;17.16;40626.67
1726245847.741;500;17.16;40626.67
1726245847.791;500;17.16;40626.67
1726245847.841;500;13.50;34321.20
1726245847.891;500;16.89;40158.27
1726245847.941;500;16.89;40158.27
1726245847.991;500;16.89;40158.27
1726245848.041;500;16.76;39930.93
1726245848.091;500;16.63;39702.93
1726245848.141;500;16.63;39702.93
1726245848.191;500;16.63;39702.93
1726245848.241;500;16.63;39702.93
1726245848.291;500;17.08;40487.07
1726245848.341;500;16.83;40049.87
1726245848.391;500;16.83;40049.87
1726245848.441;500;16.83;40047.20
1726245848.491;500;17.12;40553.60
1726245848.541;500;17.12;40553.60
1726245848.591;500;17.12;40553.60
1726245848.641;500;17.12;40553.60
1726245848.691;500;14.77;36508.27
1726245848.741;500;15.84;38345.73
1726245848.791;500;15.84;38345.73
1726245848.841;500;16.41;39323.07
1726245848.891;500;16.30;39142.54
1726245848.941;500;16.30;39142.54
1726245848.992;500;16.30;39142.54
1726245849.042;500;13.76;34759.33
1726245849.091;500;14.36;35799.87
1726245849.141;500;14.36;35799.87
1726245849.191;500;14.36;35799.87
1726245849.242;500;14.36;35799.87
1726245849.292;500;14.39;35857.73
1726245849.342;500;16.06;38730.13
1726245849.392;500;16.06;38730.13
1726245849.442;500;16.06;38730.13
1726245849.492;500;17.12;40544.80
1726245849.543;500;13.61;34513.73
1726245969.140;200;13.46;34240.80
1726245969.190;200;13.59;34481.07
1726245969.240;200;14.08;35313.07
1726245969.289;200;14.08;35313.07
1726245969.339;200;14.08;35313.07
1726245969.389;200;14.11;35374.80
1726245969.439;200;17.20;40698.13
1726245969.490;200;17.20;40698.13
1726245969.540;200;17.20;40698.13
1726245969.590;200;14.58;36177.07
1726245969.639;200;13.78;34804.27
1726245969.689;200;14.19;35506.13
1726245969.739;200;14.19;35506.13
1726245969.790;200;14.10;35349.20
1726245969.839;200;14.51;36064.40
1726245969.890;200;14.51;36064.40
1726245969.939;200;14.51;36064.40
1726245969.989;200;13.69;34638.13
1726245970.040;200;16.92;40202.93
1726245970.089;200;16.92;40202.93
1726245970.139;200;16.92;40202.93
1726245970.190;200;14.44;35942.13
1726245970.240;200;14.11;35361.00
1726245970.290;200;14.11;35361.00
1726245970.339;200;14.11;35361.00
1726245970.390;200;16.88;40134.87
1726245970.440;200;16.71;39848.54
1726245970.490;200;16.71;39848.54
1726245970.539;200;16.71;39848.54
1726245970.590;200;14.54;36108.00
1726245970.640;200;15.03;36956.93
1726245970.689;200;15.03;36956.93
1726245970.740;200;15.03;36956.93
1726245970.790;200;17.11;40541.73
1726245970.840;200;15.86;38388.54
1726245970.890;200;15.86;38388.54
1726245970.939;200;15.86;38388.54
1726245970.990;200;14.29;35670.40
1726245971.040;200;17.31;40876.00
1726245971.090;200;17.31;40876.00
1726245971.140;200;17.31;40876.00
1726245971.189;200;16.67;39781.33
1726245971.240;200;16.71;39854.00
1726245971.290;200;16.71;39854.00
1726245971.341;200;16.71;39854.00
1726245971.392;200;16.39;39289.73
1726245971.442;200;15.28;37376.20
1726245971.492;200;15.28;37376.20
1726245971.542;200;15.28;37376.20
1726245971.592;200;17.02;40378.27
1726245971.842;200;13.94;35069.27
1726245971.892;200;13.94;35069.27
1726245971.942;200;13.94;35069.27
1726245971.992;200;13.81;34858.93
1726245972.042;200;17.30;40863.60
1726245972.093;200;17.30;40863.60
1726245972.143;200;17.30;40863.60
1726245972.193;200;16.64;39730.07
1726245972.243;200;17.02;40378.80
1726245972.293;200;17.02;40378.80
1726245972.343;200;17.02;40378.80
1726245972.393;200;16.77;39957.73
1726245972.443;200;16.33;39187.60
1726245972.493;200;16.15;38885.20
1726245972.543;200;16.15;38885.20
1726245972.593;200;17.67;41508.67
1726245972.644;200;17.62;41419.07
1726245972.693;200;17.62;41419.07
1726245972.744;200;17.62;41419.07
1726245972.794;200;15.44;37658.54
1726245972.944;200;13.49;34298.54
1726245972.994;200;15.17;37202.13
1726245973.044;200;15.17;37202.13
1726245973.094;200;15.17;37202.13
1726245973.194;200;16.32;39179.00
1726245973.244;200;16.32;39179.00
1726245973.295;200;16.32;39179.00
1726245973.345;200;17.55;41300.67
1726245973.396;200;14.59;36194.40
1726245973.445;200;17.53;41256.40
1726245973.495;200;17.53;41256.40
1726245973.545;200;17.53;41256.40
1726245973.595;200;17.48;41172.80
1726245973.645;200;17.69;41529.87
1726245973.696;200;17.81;41748.93
1726245973.745;200;17.81;41748.93
1726245973.795;200;14.04;35252.80
1726245973.845;200;17.39;41021.40
1726245973.895;200;17.39;41021.40
1726245973.945;200;17.17;40637.73
1726245973.996;200;17.31;40877.67
1726245974.047;200;17.45;41122.93
1726245974.096;200;17.45;41122.93
1726245974.146;200;14.68;36355.33
1726245987.064;200;13.71;34685.40
1726245987.114;200;13.71;34685.40
1726245987.165;200;13.71;34685.40
1726245987.214;200;13.42;34174.67
1726245987.264;200;14.46;35975.07
1726245987.315;200;14.46;35975.07
1726245987.365;200;14.46;35975.07
1726245987.416;200;15.41;37600.33
1726245987.465;200;16.21;38980.46
1726245987.516;200;16.21;38980.46
1726245987.566;200;16.21;38980.46
1726245987.616;200;16.90;40179.60
1726245987.666;200;15.93;38497.80
1726245987.716;200;15.93;38497.80
1726245987.766;200;15.93;38497.80
1726245987.816;200;14.09;35331.93
1726245987.866;200;17.36;40966.67
1726245987.917;200;17.36;40966.67
1726245987.967;200;17.36;40966.67
1726245988.017;200;16.05;38705.07
1726245988.067;200;14.33;35744.87
1726245988.116;200;14.33;35744.87
1726245988.166;200;14.33;35744.87
1726245988.217;200;14.58;36181.13
1726245988.267;200;16.92;40211.46
1726245988.317;200;16.92;40211.46
1726245988.366;200;16.92;40211.46
1726245988.417;200;13.70;34656.00
1726245988.466;200;13.89;34992.54
1726245988.516;200;14.79;36535.60
1726245988.567;200;14.79;36535.60
1726245988.618;200;14.79;36535.60
1726245988.668;200;17.37;40986.07
1726245988.718;200;17.64;41454.13
1726245988.768;200;17.64;41454.13
1726245988.819;200;17.64;41454.13
1726245988.869;200;14.08;35311.33
1726245988.918;200;14.08;35311.33
1726245988.968;200;14.08;35311.33
1726245989.018;200;17.47;41155.73
1726245989.068;200;15.36;37530.13
1726245989.119;200;15.36;37530.13
1726245989.168;200;15.36;37530.13
1726245989.219;200;14.57;36165.13
1726245989.268;200;17.60;41384.80
1726245989.318;200;17.60;41384.80
1726245989.368;200;17.60;41384.80
1726245989.418;200;17.36;40960.40
1726245989.468;200;17.39;41014.00
1726245989.519;200;17.39;41014.00
1726245989.568;200;17.39;41014.00
1726245989.618;200;16.35;39232.46
1726245989.669;200;15.37;37544.46
1726245989.719;200;15.37;37544.46
1726245989.769;200;15.37;37544.46
1726245989.818;200;17.35;40942.27
1726245989.869;200;15.73;38155.60
1726245989.918;200;15.73;38155.60
1726245989.968;200;15.73;38155.60
1726245990.018;200;16.91;40184.33
1726245990.069;200;16.68;39802.00
1726245990.118;200;16.68;39802.00
1726245990.168;200;16.68;39802.00
1726245990.219;200;17.33;40911.60
1726245990.269;200;17.28;40830.13
1726245990.319;200;17.28;40830.13
1726245990.369;200;17.28;40830.13
1726245990.419;200;13.82;34876.00
1726245990.469;200;17.62;41422.67
1726245990.519;200;17.62;41422.67
1726245990.569;200;17.62;41422.67
1726245990.619;200;17.34;40940.13
1726245990.671;200;17.57;41321.60
1726245990.721;200;17.57;41321.60
1726245990.771;200;17.57;41321.60
1726245990.822;200;15.89;38437.87
1726245990.871;200;17.57;41330.00
1726245990.922;200;17.57;41330.00
1726245990.972;200;17.57;41330.00
1726245991.022;200;13.66;34590.80
1726245991.072;200;15.88;38423.54
1726245991.122;200;15.88;38423.54
1726245991.172;200;15.88;38423.54
1726245991.223;200;15.88;38423.54
1726245991.273;200;14.11;35364.67
1726245991.323;200;17.23;40740.93
1726245991.373;200;14.18;35481.33
1726245991.422;200;14.18;35481.33
1726245991.472;200;14.18;35481.33
1726245991.522;200;17.62;41420.33
1726245991.572;200;17.42;41074.20
1726245991.622;200;16.85;40091.00
1726245991.672;200;16.85;40091.00
1726245991.722;200;16.85;40091.00
1726245991.772;200;13.81;34858.73
1726245991.823;200;14.79;36539.07
1726245991.872;200;14.79;36539.07
1726245991.923;200;14.79;36539.07
1726245991.972;200;14.13;35395.87
1726245992.023;200;17.39;41011.27
1726245992.072;200;15.96;38562.54
1726245992.123;200;15.96;38562.54
1726245992.173;200;15.96;38562.54
1726245992.223;200;16.91;40196.00
1726246005.343;200;14.00;35185.87
1726246005.393;200;14.00;35185.87
1726246005.442;200;14.00;35185.87
1726246005.493;200;14.84;36624.54
1726246005.543;200;15.75;38187.33
1726246005.593;200;15.75;38187.33
1726246005.642;200;15.75;38187.33
1726246005.693;200;15.63;37983.67
1726246005.743;200;15.77;38219.87
1726246005.793;200;15.52;37797.07
1726246005.843;200;15.52;37797.07
1726246005.894;200;15.52;37797.07
1726246005.944;200;14.58;36181.40
1726246005.994;200;15.34;37492.60
1726246006.044;200;15.34;37492.60
1726246006.093;200;15.34;37492.60
1726246006.143;200;14.12;35394.33
1726246006.194;200;14.12;35394.33
1726246006.245;200;14.12;35394.33
1726246006.294;200;14.60;36218.54
1726246006.345;200;16.57;39614.27
1726246006.394;200;16.96;40278.27
1726246006.445;200;16.96;40278.27
1726246006.494;200;15.03;36954.27
1726246006.545;200;15.05;36988.07
1726246006.595;200;15.05;36988.07
1726246006.645;200;15.05;36988.07
1726246006.695;200;15.37;37543.20
1726246006.744;200;17.32;40899.87
1726246006.796;200;17.45;41122.40
1726246006.846;200;17.45;41122.40
1726246006.895;200;17.45;41122.40
1726246006.946;200;14.14;35413.80
1726246006.996;200;16.83;40055.27
1726246007.046;200;16.43;39367.13
1726246007.095;200;16.43;39367.13
1726246007.145;200;16.43;39367.13
1726246007.196;200;14.13;35401.87
1726246007.246;200;14.02;35207.20
1726246007.296;200;14.02;35207.20
1726246007.346;200;14.02;35207.20
1726246007.396;200;14.52;36072.27
1726246007.446;200;14.52;36072.27
1726246007.496;200;14.52;36072.27
1726246007.546;200;14.52;36072.27
1726246007.596;200;16.35;39229.46
1726246007.646;200;15.65;38013.07
1726246007.696;200;15.65;38013.07
1726246007.747;200;15.65;38013.07
1726246007.796;200;17.23;40742.93
1726246007.896;200;14.16;35460.27
1726246007.946;200;14.16;35460.27
1726246007.997;200;16.95;40252.73
1726246008.047;200;13.72;34690.40
1726246008.097;200;17.40;41036.67
1726246008.148;200;17.40;41036.67
1726246008.197;200;17.27;40818.00
1726246008.248;200;14.55;36132.54
1726246008.297;200;13.51;34341.67
1726246008.347;200;13.51;34341.67
1726246008.397;200;13.51;34341.67
1726246008.447;200;17.11;40538.00
1726246008.497;200;13.84;34904.27
1726246008.548;200;13.84;34904.27
1726246008.597;200;13.84;34904.27
1726246008.647;200;13.84;34904.27
1726246008.697;200;13.93;35057.60
1726246008.748;200;17.45;41114.27
1726246008.797;200;17.45;41114.27
1726246008.847;200;17.45;41114.27
1726246008.897;200;15.50;37758.27
1726246008.947;200;16.84;40066.93
1726246008.999;200;14.87;36679.20
1726246009.048;200;14.87;36679.20
1726246009.098;200;17.49;41187.87
1726246009.148;200;17.57;41336.60
1726246009.198;200;17.57;41336.60
1726246009.249;200;17.57;41336.60
1726246009.298;200;16.33;39188.40
1726246009.349;200;17.48;41175.40
1726246009.399;200;17.48;41175.40
1726246009.450;200;17.48;41175.40
1726246009.499;200;17.58;41346.93
1726246009.549;200;16.57;39612.00
1726246009.599;200;16.33;39194.60
1726246009.649;200;16.33;39194.60
1726246009.700;200;16.33;39194.60
1726246009.749;200;13.42;34174.54
1726246009.800;200;14.08;35318.54
1726246009.849;200;14.08;35318.54
1726246009.900;200;14.08;35318.54
1726246009.950;200;14.08;35318.54
1726246010.001;200;14.83;36603.20
1726246010.051;200;15.67;38050.73
1726246010.101;200;15.67;38050.73
1726246010.151;200;15.67;38050.73
1726246010.201;200;15.70;38107.60
