UnixTimestamp;Microseconds;MilliAmpere;BaseValue
1740135001.527;300;17.62;34801.07
1740135001.575;300;17.62;34801.07
1740135001.675;300;21.16;39518.13
1740135001.725;300;21.16;39518.13
1740135001.925;300;18.26;35653.20
1740135001.975;300;18.26;35653.20
1740135002.025;300;19.17;36867.46
1740135002.075;300;19.17;36867.46
1740135002.125;300;21.09;39433.33
1740135002.176;300;22.33;41082.40
1740135002.225;300;22.33;41082.40
1740135002.275;300;18.75;36310.40
1740135002.325;300;19.27;37002.27
1740135002.376;300;19.27;37002.27
1740135002.426;300;19.42;37198.93
1740135002.476;300;19.42;37198.93
1740135002.526;300;21.07;39400.93
1740135002.577;300;21.07;39400.93
1740135002.627;300;21.00;39308.40
1740135002.677;300;18.17;35532.80
1740135002.727;300;18.17;35532.80
1740135002.777;300;22.09;40759.60
1740135002.827;300;22.09;40759.60
1740135002.877;300;22.09;40759.60
1740135002.927;300;22.41;41193.07
1740135002.977;300;22.41;41193.07
1740135003.027;300;20.49;38627.40
1740135003.077;300;20.49;38627.40
1740135003.127;300;21.95;40570.67
1740135003.280;300;20.62;38800.20
1740135003.327;300;18.65;36170.80
1740135003.378;300;18.65;36170.80
1740135003.428;300;18.19;35562.33
1740135003.478;300;18.19;35562.33
1740135003.527;300;20.71;38926.13
1740135003.578;300;20.71;38926.13
1740135003.627;300;20.71;38926.13
1740135003.677;300;20.39;38489.07
1740135003.728;300;20.39;38489.07
1740135003.778;300;22.28;41019.60
1740135003.828;300;21.20;39569.60
1740135003.878;300;21.20;39569.60
1740135003.928;300;22.41;41187.20
1740135003.978;300;22.41;41187.20
1740135004.027;300;18.98;36606.80
1740135004.078;300;18.98;36606.80
1740135004.128;300;19.74;37620.13
1740135004.178;300;21.31;39724.00
1740135004.228;300;21.31;39724.00
1740135004.278;300;19.59;37432.00
1740135004.328;300;19.59;37432.00
1740135004.378;300;20.34;38432.00
1740135004.428;300;19.66;37517.60
1740135004.478;300;19.66;37517.60
1740135004.528;300;21.81;40387.60
1740135004.578;300;21.81;40387.60
1740135004.628;300;21.02;39334.00
1740135004.679;300;18.66;36184.93
1740135004.728;300;18.66;36184.93
1740135004.779;300;22.47;41265.60
1740135004.829;300;22.47;41265.60
1740135004.878;300;22.53;41343.46
1740135004.929;300;22.46;41258.93
1740135004.978;300;22.46;41258.93
1740135005.028;300;20.94;39227.73
1740135005.079;300;20.94;39227.73
1740135005.128;300;21.74;40288.80
1740135005.179;300;21.74;40288.80
1740135005.229;300;21.52;39999.46
1740135005.279;300;22.66;41516.27
1740135005.328;300;22.66;41516.27
1740135005.379;300;18.28;35677.07
1740135005.429;300;18.28;35677.07
1740135005.479;300;18.28;35677.07
1740135005.529;300;21.96;40583.87
1740135005.580;300;21.96;40583.87
1740135005.630;300;19.44;37224.93
1740135005.681;300;19.44;37224.93
1740135005.731;300;19.86;37790.13
1740135005.781;300;21.95;40571.46
1740135005.831;300;21.95;40571.46
1740135005.882;300;20.95;39242.67
1740135005.932;300;20.95;39242.67
1740135005.982;300;19.95;37906.54
1740135006.032;300;22.39;41156.40
1740135006.082;300;22.39;41156.40
1740135006.132;300;22.13;40808.93
1740135006.182;300;22.13;40808.93
1740135006.232;300;17.74;34952.00
1740135014.786;300;18.10;35440.80
1740135014.835;300;18.10;35440.80
1740135014.886;300;18.54;36025.07
1740135014.935;300;18.54;36025.07
1740135014.985;300;17.80;35042.40
1740135015.035;300;22.27;40998.93
1740135015.087;300;22.27;40998.93
1740135015.137;300;18.73;36280.80
1740135015.186;300;18.73;36280.80
1740135015.237;300;21.05;39369.33
1740135015.286;300;21.42;39871.46
1740135015.337;300;21.42;39871.46
1740135015.387;300;18.74;36285.46
1740135015.437;300;18.74;36285.46
1740135015.487;300;19.33;37079.20
1740135015.637;300;18.84;36424.80
1740135015.687;300;18.84;36424.80
1740135015.737;300;19.03;36671.73
1740135015.787;300;19.03;36671.73
1740135015.837;300;19.03;36671.73
1740135015.887;300;19.69;37565.33
1740135015.937;300;19.69;37565.33
1740135015.987;300;22.49;41289.33
1740135016.038;300;21.96;40584.80
1740135016.087;300;21.96;40584.80
1740135016.138;300;18.16;35511.73
1740135016.187;300;18.16;35511.73
1740135016.238;300;21.41;39856.27
1740135016.287;300;21.41;39856.27
1740135016.337;300;18.41;35853.60
1740135016.388;300;22.41;41192.54
1740135016.438;300;22.41;41192.54
1740135016.488;300;18.50;35966.80
1740135016.538;300;22.16;40853.60
1740135016.588;300;22.16;40853.60
1740135016.638;300;21.50;39969.07
1740135016.688;300;21.50;39969.07
1740135016.738;300;18.69;36218.93
1740135016.789;300;18.69;36218.93
1740135016.838;300;20.72;38938.93
1740135016.889;300;21.96;40589.73
1740135016.938;300;21.96;40589.73
1740135016.988;300;21.97;40604.00
1740135017.038;300;21.97;40604.00
1740135017.088;300;19.07;36733.87
1740135017.138;300;22.26;40986.40
1740135017.189;300;22.26;40986.40
1740135017.238;300;18.19;35554.40
1740135017.288;300;18.19;35554.40
1740135017.338;300;21.95;40568.27
1740135017.389;300;21.95;40568.27
1740135017.439;300;21.27;39661.46
1740135017.489;300;22.41;41190.40
1740135017.539;300;22.41;41190.40
1740135017.589;300;17.69;34892.00
1740135017.639;300;17.69;34892.00
1740135017.689;300;17.69;34892.00
1740135017.739;300;18.08;35410.40
1740135017.789;300;18.08;35410.40
1740135017.839;300;19.54;37359.73
1740135017.889;300;22.34;41097.87
1740135017.939;300;22.34;41097.87
1740135017.989;300;22.30;41041.87
1740135018.039;300;22.30;41041.87
1740135018.089;300;22.21;40925.60
1740135018.139;300;22.21;40925.60
1740135018.189;300;20.83;39084.93
1740135018.239;300;21.28;39678.13
1740135018.289;300;21.71;40252.80
1740135018.339;300;19.11;36778.80
1740135018.389;300;19.11;36778.80
1740135018.439;300;22.32;41064.27
1740135018.489;300;22.32;41064.27
1740135018.539;300;21.62;40127.87
1740135018.589;300;21.62;40127.87
1740135018.639;300;18.66;36185.07
1740135018.689;300;18.66;36185.07
1740135018.739;300;19.92;37867.07
1740135018.789;300;19.92;37867.07
1740135018.839;300;20.14;38154.13
1740135018.890;300;20.14;38154.13
1740135018.939;300;21.10;39440.54
1740135018.990;300;18.82;36399.20
1740135019.041;300;18.82;36399.20
1740135019.097;300;21.84;40427.73
1740135019.143;300;19.72;37599.07
1740135019.194;300;19.72;37599.07
1740135019.244;300;22.29;41027.73
1740135019.294;300;22.29;41027.73
1740135019.344;300;22.28;41014.07
1740135019.394;300;22.28;41014.07
1740135019.444;300;22.36;41126.67
1740135019.495;300;22.36;41126.67
1740135027.601;300;17.55;34702.13
1740135027.650;300;17.55;34702.13
1740135027.701;300;22.27;41004.80
1740135027.751;300;22.27;41004.80
1740135027.801;300;18.10;35438.67
1740135027.851;300;18.10;35438.67
1740135027.901;300;22.11;40783.46
1740135027.951;300;21.72;40263.20
1740135028.001;300;21.72;40263.20
1740135028.050;300;18.82;36401.20
1740135028.101;300;18.76;36313.73
1740135028.151;300;21.62;40137.87
1740135028.200;300;21.62;40137.87
1740135028.250;300;18.75;36302.93
1740135028.301;300;18.75;36302.93
1740135028.350;300;19.22;36930.40
1740135028.401;300;19.22;36930.40
1740135028.451;300;18.88;36476.13
1740135028.501;300;18.88;36476.13
1740135028.551;300;21.83;40415.20
1740135028.601;300;21.85;40438.80
1740135028.651;300;22.23;40954.54
1740135028.701;300;21.47;39940.00
1740135028.751;300;21.47;39940.00
1740135028.801;300;19.27;36992.54
1740135028.851;300;19.27;36992.54
1740135028.902;300;18.83;36405.46
1740135028.952;300;18.83;36405.46
1740135029.001;300;21.65;40178.67
1740135029.052;300;21.82;40403.20
1740135029.102;300;21.82;40403.20
1740135029.151;300;18.53;36009.07
1740135029.202;300;18.53;36009.07
1740135029.252;300;20.87;39132.80
1740135029.302;300;20.87;39132.80
1740135029.352;300;18.31;35721.60
1740135029.403;300;18.31;35721.60
1740135029.452;300;18.86;36448.27
1740135029.502;300;18.86;36448.27
1740135029.554;300;18.84;36422.40
1740135029.603;300;18.84;36422.40
1740135029.652;300;20.11;38116.27
1740135029.703;300;21.57;40066.40
1740135029.753;300;21.57;40066.40
1740135029.803;300;19.55;37370.13
1740135029.853;300;19.55;37370.13
1740135029.903;300;18.51;35982.40
1740135029.953;300;18.51;35982.40
1740135030.004;300;19.55;37368.00
1740135030.053;300;19.55;37368.00
1740135030.104;300;21.67;40195.33
1740135030.154;300;21.69;40223.07
1740135030.204;300;21.69;40223.07
1740135030.254;300;19.06;36716.67
1740135030.304;300;19.06;36716.67
1740135030.354;300;18.75;36301.46
1740135030.404;300;18.75;36301.46
1740135030.453;300;20.73;38950.93
1740135030.504;300;20.73;38950.93
1740135030.554;300;19.91;37850.93
1740135030.604;300;19.91;37850.93
1740135030.654;300;22.04;40697.20
1740135030.703;300;22.04;40697.20
1740135030.754;300;21.85;40434.67
1740135030.805;300;22.26;40988.27
1740135030.854;300;22.26;40988.27
1740135030.905;300;19.71;37586.07
1740135030.954;300;19.71;37586.07
1740135031.004;300;21.72;40269.87
1740135031.054;300;21.72;40269.87
1740135031.106;300;20.15;38176.27
1740135031.155;300;20.15;38176.27
1740135031.206;300;19.43;37217.87
1740135031.255;300;19.43;37217.87
1740135031.307;300;22.14;40824.27
1740135031.357;300;22.14;40824.27
1740135031.407;300;22.53;41350.67
1740135031.457;300;21.25;39634.93
1740135031.507;300;21.25;39634.93
1740135031.557;300;20.25;38308.20
1740135031.607;300;20.25;38308.20
1740135031.657;300;18.64;36161.33
1740135031.707;300;18.64;36161.33
1740135167.648;400;18.35;35774.67
1740135167.699;400;18.35;35774.67
1740135167.749;400;17.88;35146.54
1740135167.799;400;20.54;38694.40
1740135167.849;400;20.54;38694.40
1740135167.899;400;22.36;41116.54
1740135167.949;400;22.36;41116.54
1740135167.999;400;21.18;39553.07
1740135168.049;400;21.18;39553.07
1740135168.098;400;18.40;35832.40
1740135168.149;400;19.17;36861.20
1740135168.199;400;19.17;36861.20
1740135168.249;400;22.30;41043.20
1740135168.299;400;22.30;41043.20
1740135168.349;400;22.30;41043.20
1740135168.399;400;18.49;35954.13
1740135168.449;400;18.49;35954.13
1740135168.498;400;21.11;39457.33
1740135168.549;400;21.11;39457.33
1740135168.598;400;20.42;38539.07
1740135168.649;400;21.56;40056.27
1740135168.699;400;21.56;40056.27
1740135168.749;400;22.46;41253.60
1740135168.799;400;22.20;40908.80
1740135168.848;400;22.20;40908.80
1740135168.898;400;22.14;40822.93
1740135168.950;400;22.14;40822.93
1740135169.000;400;22.14;40834.40
1740135169.050;400;22.14;40834.40
1740135169.100;400;22.14;40834.40
1740135169.150;400;22.24;40968.00
1740135169.199;400;22.24;40968.00
1740135169.249;400;18.47;35927.93
1740135169.300;400;19.82;37731.13
1740135169.350;400;19.82;37731.13
1740135169.400;400;17.85;35101.33
1740135169.450;400;17.85;35101.33
1740135169.500;400;19.78;37682.93
1740135169.550;400;19.78;37682.93
1740135169.599;400;20.79;39031.33
1740135169.649;400;17.53;34678.67
1740135169.700;400;17.53;34678.67
1740135169.751;400;22.14;40825.60
1740135169.800;400;19.75;37644.27
1740135169.850;400;19.75;37644.27
1740135169.900;400;22.33;41077.60
1740135169.950;400;22.33;41077.60
1740135170.000;400;18.98;36615.87
1740135170.051;400;20.11;38117.87
1740135170.101;400;20.11;38117.87
1740135170.151;400;17.52;34660.40
1740135170.201;400;17.52;34660.40
1740135170.251;400;17.52;34660.40
1740135170.302;400;21.31;39719.46
1740135170.351;400;21.31;39719.46
1740135170.401;400;20.79;39030.80
1740135170.451;400;20.79;39030.80
1740135170.501;400;20.79;39030.80
1740135170.551;400;18.62;36134.67
1740135170.601;400;18.62;36134.67
1740135170.651;400;20.45;38579.20
1740135170.701;400;20.45;38579.20
1740135170.751;400;20.45;38579.20
1740135170.801;400;21.70;40246.40
1740135170.852;400;21.70;40246.40
1740135170.901;400;19.41;37184.40
1740135170.952;400;18.93;36543.87
1740135171.001;400;18.93;36543.87
1740135171.051;400;21.72;40266.13
1740135171.102;400;21.72;40266.13
1740135171.151;400;21.72;40266.13
1740135171.201;400;21.60;40107.20
1740135171.252;400;21.60;40107.20
1740135171.302;400;22.26;40984.00
1740135171.352;400;22.26;40984.00
1740135171.401;400;20.61;38788.40
1740135171.552;400;19.28;37013.33
1740135171.602;400;19.28;37013.33
1740135171.653;400;19.13;36811.20
1740135171.702;400;17.84;35090.13
1740135171.753;400;17.84;35090.13
1740135171.803;400;20.59;38757.80
1740135171.852;400;20.59;38757.80
1740135171.902;400;19.20;36907.73
1740135171.952;400;21.02;39338.80
1740135172.003;400;21.02;39338.80
1740135172.052;400;22.24;40964.27
1740135172.102;400;22.24;40964.27
1740135172.152;400;20.50;38639.20
1740135172.203;400;20.99;39299.33
1740135172.253;400;20.99;39299.33
1740135172.303;400;21.57;40065.60
1740135172.353;400;21.57;40065.60
1740135172.403;400;20.61;38792.00
1740135172.453;400;20.61;38792.00
1740135172.502;400;20.61;38792.00
1740135172.553;400;20.18;38215.20
1740135172.603;400;20.18;38215.20
1740135172.653;400;22.47;41270.93
1740135172.703;400;20.34;38429.60
1740135172.753;400;20.34;38429.60
1740135181.600;400;20.18;38210.93
1740135181.651;400;20.18;38210.93
1740135181.700;400;21.15;39505.87
1740135181.751;400;20.31;38392.80
1740135181.801;400;20.31;38392.80
1740135181.851;400;20.52;38664.54
1740135181.901;400;20.52;38664.54
1740135181.951;400;19.68;37548.13
1740135182.001;400;19.68;37548.13
1740135182.051;400;19.68;37548.13
1740135182.102;400;21.87;40470.13
1740135182.151;400;21.87;40470.13
1740135182.202;400;21.15;39507.33
1740135182.252;400;21.15;39507.33
1740135182.301;400;20.36;38456.20
1740135182.352;400;20.09;38097.07
1740135182.402;400;20.09;38097.07
1740135182.452;400;21.05;39373.54
1740135182.502;400;21.68;40217.87
1740135182.553;400;21.68;40217.87
1740135182.602;400;20.66;38846.93
1740135182.653;400;20.66;38846.93
1740135182.703;400;21.33;39746.00
1740135182.753;400;22.21;40915.87
1740135182.802;400;22.21;40915.87
1740135182.853;400;18.73;36274.67
1740135182.903;400;18.73;36274.67
1740135182.953;400;19.40;37166.67
1740135183.002;400;22.51;41320.00
1740135183.053;400;22.51;41320.00
1740135183.102;400;18.53;36008.54
1740135183.153;400;18.53;36008.54
1740135183.203;400;18.50;35974.27
1740135183.253;400;19.49;37289.60
1740135183.303;400;19.49;37289.60
1740135183.353;400;22.31;41050.67
1740135183.402;400;22.31;41050.67
1740135183.453;400;21.44;39898.40
1740135183.503;400;21.88;40485.33
1740135183.553;400;21.88;40485.33
1740135183.602;400;20.92;39205.87
1740135183.653;400;20.92;39205.87
1740135183.704;400;22.02;40673.33
1740135183.753;400;20.48;38612.54
1740135183.803;400;20.48;38612.54
1740135183.853;400;19.26;36983.20
1740135183.904;400;19.26;36983.20
1740135183.954;400;19.26;36983.20
1740135184.004;400;18.37;35791.46
1740135184.054;400;18.37;35791.46
1740135184.103;400;18.32;35725.07
1740135184.154;400;19.81;37721.60
1740135184.203;400;19.81;37721.60
1740135184.254;400;22.48;41279.20
1740135184.304;400;17.78;35010.00
1740135184.354;400;17.78;35010.00
1740135184.404;400;22.21;40927.73
1740135184.455;400;22.21;40927.73
1740135184.504;400;20.49;38631.46
1740135184.554;400;20.49;38631.46
1740135184.604;400;18.69;36221.40
1740135184.654;400;17.87;35130.93
1740135184.704;400;17.87;35130.93
1740135184.754;400;19.38;37138.60
1740135184.804;400;19.38;37138.60
1740135184.854;400;19.64;37494.54
1740135184.904;400;21.12;39465.60
1740135184.955;400;21.12;39465.60
1740135185.005;400;21.61;40121.07
1740135185.055;400;21.61;40121.07
1740135185.105;400;21.61;40121.07
1740135185.155;400;20.95;39240.00
1740135185.204;400;20.95;39240.00
1740135185.255;400;19.53;37338.67
1740135185.305;400;19.76;37656.54
1740135185.356;400;19.76;37656.54
1740135185.406;400;18.86;36446.13
1740135185.455;400;18.86;36446.13
1740135185.506;400;21.38;39809.33
1740135185.556;400;21.38;39809.33
1740135185.605;400;19.08;36746.93
1740135185.656;400;18.72;36268.27
1740135185.707;400;18.72;36268.27
1740135185.756;400;22.29;41024.80
1740135185.806;400;22.29;41024.80
1740135185.857;400;22.84;41764.80
1740135185.907;400;18.96;36586.40
1740135185.957;400;18.96;36586.40
1740135186.007;400;21.64;40157.07
1740135186.057;400;21.64;40157.07
1740135186.106;400;21.21;39592.80
1740135186.157;400;18.56;36046.40
1740135186.208;400;18.56;36046.40
1740135186.258;400;21.21;39590.27
1740135186.307;400;21.21;39590.27
1740135186.357;400;21.21;39590.27
1740135186.408;400;19.73;37614.93
1740135186.458;400;19.73;37614.93
1740135195.335;400;18.78;36345.33
1740135195.386;400;18.78;36345.33
1740135195.436;400;21.16;39516.00
1740135195.485;400;21.16;39516.00
1740135195.536;400;22.29;41024.80
1740135195.585;400;22.29;41024.80
1740135195.635;400;22.29;41024.80
1740135195.687;400;22.31;41050.93
1740135195.736;400;22.31;41050.93
1740135195.787;400;22.31;41050.93
1740135195.837;400;21.63;40144.00
1740135195.887;400;21.63;40144.00
1740135195.937;400;22.19;40890.27
1740135195.987;400;22.19;40890.27
1740135196.038;400;19.77;37659.80
1740135196.088;400;19.75;37632.93
1740135196.137;400;19.75;37632.93
1740135196.187;400;21.93;40548.60
1740135196.237;400;21.93;40548.60
1740135196.288;400;21.93;40548.60
1740135196.338;400;21.95;40573.73
1740135196.389;400;21.95;40573.73
1740135196.439;400;21.46;39917.54
1740135196.489;400;21.46;39917.54
1740135196.539;400;21.46;39917.54
1740135196.590;400;21.60;40112.27
1740135196.640;400;21.60;40112.27
1740135196.690;400;19.36;37122.93
1740135196.740;400;19.36;37122.93
1740135196.790;400;19.36;37122.93
1740135196.840;400;22.08;40753.60
1740135196.890;400;22.08;40753.60
1740135196.940;400;21.37;39795.73
1740135196.990;400;18.93;36538.27
1740135197.040;400;18.93;36538.27
1740135197.090;400;22.11;40786.93
1740135197.140;400;22.11;40786.93
1740135197.190;400;20.94;39226.40
1740135197.240;400;18.51;35988.27
1740135197.290;400;18.51;35988.27
1740135197.340;400;22.29;41030.67
1740135197.389;400;22.29;41030.67
1740135197.440;400;19.72;37601.60
1740135197.490;400;19.72;37601.60
1740135197.540;400;21.41;39860.00
1740135197.590;400;19.11;36782.13
1740135197.640;400;19.11;36782.13
1740135197.690;400;18.80;36369.60
1740135197.740;400;18.71;36249.60
1740135197.790;400;18.71;36249.60
1740135197.840;400;18.87;36459.07
1740135197.889;400;18.87;36459.07
1740135197.940;400;19.87;37804.00
1740135197.990;400;19.87;37804.00
1740135198.040;400;21.23;39610.67
1740135198.090;400;20.90;39176.54
1740135198.140;400;20.90;39176.54
1740135198.190;400;22.01;40651.46
1740135198.241;400;21.07;39398.13
1740135198.290;400;21.07;39398.13
1740135198.340;400;21.40;39843.73
1740135198.390;400;21.40;39843.73
1740135198.440;400;21.07;39397.07
1740135198.490;400;21.07;39397.07
1740135198.540;400;21.07;39397.07
1740135198.590;400;21.60;40113.07
1740135198.640;400;21.60;40113.07
1740135198.690;400;19.55;37366.13
1740135198.740;400;19.87;37804.93
1740135198.790;400;19.87;37804.93
1740135198.840;400;18.57;36067.46
1740135198.890;400;18.57;36067.46
1740135198.940;400;20.74;38958.00
1740135198.990;400;20.74;38958.00
1740135199.040;400;20.74;38958.00
1740135199.090;400;20.69;38887.07
1740135199.140;400;20.69;38887.07
1740135199.191;400;17.98;35270.33
1740135199.240;400;18.76;36323.54
1740135199.291;400;18.76;36323.54
1740135199.341;400;20.87;39132.27
1740135199.391;400;20.87;39132.27
1740135199.440;400;22.13;40812.54
1740135199.492;400;22.05;40710.27
1740135199.541;400;22.05;40710.27
1740135199.592;400;17.59;34761.33
1740135199.642;400;18.58;36076.67
1740135199.692;400;18.58;36076.67
1740135199.742;400;21.92;40530.67
1740135199.793;400;21.92;40530.67
1740135199.842;400;19.76;37657.87
1740135199.892;400;19.76;37657.87
1740135199.942;400;19.76;37657.87
1740135199.992;400;20.87;39134.93
1740135200.042;400;20.87;39134.93
1740135200.092;400;19.75;37643.73
1740135200.143;400;19.75;37643.73
1740135200.193;400;19.75;37643.73
1740135200.243;400;21.26;39653.33
1740135200.293;400;21.26;39653.33
1740135322.031;102;10.00;36793.33
1740135322.080;102;10.00;36793.33
1740135322.131;94;10.00;34825.46
1740135322.181;94;10.00;34825.46
1740135322.231;94;10.00;34820.93
1740135322.281;108;10.00;38254.67
1740135322.331;108;10.00;38254.67
1740135322.381;103;10.00;37057.73
1740135322.431;103;10.00;37057.73
1740135322.480;100;10.00;36400.67
1740135322.531;105;10.00;37740.93
1740135322.581;105;10.00;37740.93
1740135322.631;100;10.00;36307.73
1740135322.681;100;10.00;36307.73
1740135322.731;102;10.00;36797.33
1740135322.780;102;10.00;36926.80
1740135322.831;102;10.00;36926.80
1740135322.881;95;10.00;35214.33
1740135322.932;95;10.00;35214.33
1740135322.982;98;10.00;35798.33
1740135323.032;102;10.00;36961.73
1740135323.081;102;10.00;36961.73
1740135323.131;103;10.00;37081.20
1740135323.182;103;10.00;37081.20
1740135323.232;105;10.00;37705.46
1740135323.281;95;10.00;35023.33
1740135323.331;95;10.00;35023.33
1740135323.382;105;10.00;37659.20
1740135323.432;105;10.00;37659.20
1740135323.482;107;10.00;38090.93
1740135323.533;107;10.00;38090.93
1740135323.582;98;10.00;35866.33
1740135323.633;95;10.00;35010.54
1740135323.683;95;10.00;35010.54
1740135323.733;107;10.00;38150.54
1740135323.783;107;10.00;38150.54
1740135323.833;102;10.00;36772.93
1740135323.883;102;10.00;36763.07
1740135323.933;102;10.00;36763.07
1740135323.983;107;10.00;38142.00
1740135324.033;107;10.00;38142.00
1740135324.083;98;10.00;35926.40
1740135324.134;98;10.00;35926.40
1740135324.183;98;10.00;35926.40
1740135324.233;105;10.00;37640.54
1740135324.283;105;10.00;37640.54
1740135324.334;101;10.00;36514.80
1740135324.383;94;10.00;34859.87
1740135324.434;94;10.00;34859.87
1740135324.483;111;10.00;39003.46
1740135324.533;111;10.00;39003.46
1740135324.583;106;10.00;37839.46
1740135324.633;106;10.00;37839.46
1740135324.683;102;10.00;36920.13
1740135324.734;112;10.00;39460.67
1740135324.784;112;10.00;39460.67
1740135324.833;115;10.00;40125.33
1740135324.884;115;10.00;40125.33
1740135324.933;106;10.00;37802.40
1740135324.984;107;10.00;38082.27
1740135325.034;107;10.00;38082.27
1740135325.084;114;10.00;39846.67
1740135325.134;114;10.00;39846.67
1740135325.184;108;10.00;38320.80
1740135325.234;108;10.00;38320.80
1740135325.284;102;10.00;36822.80
1740135325.334;106;10.00;37857.33
1740135325.383;106;10.00;37857.33
1740135325.434;105;10.00;37618.93
1740135325.484;105;10.00;37618.93
1740135325.534;105;10.00;37618.93
1740135325.584;103;10.00;37213.87
1740135325.634;103;10.00;37213.87
1740135325.684;108;10.00;38275.73
1740135325.734;102;10.00;36946.20
1740135325.784;102;10.00;36946.20
1740135325.835;112;10.00;39341.80
1740135325.884;97;10.00;35542.67
1740135325.934;97;10.00;35542.67
1740135325.984;100;10.00;36370.93
1740135326.035;100;10.00;36370.93
1740135326.086;105;10.00;37524.00
1740135326.137;105;10.00;37524.00
1740135326.186;105;10.00;37524.00
1740135326.236;109;10.00;38587.73
1740135326.287;109;10.00;38587.73
1740135326.336;108;10.00;38381.07
1740135326.387;99;10.00;36012.93
1740135326.436;99;10.00;36012.93
1740135326.487;112;10.00;39243.07
1740135326.537;112;10.00;39243.07
1740135326.587;114;10.00;39963.46
1740135326.637;114;10.00;39963.46
1740135326.686;105;10.00;37708.80
1740135326.737;104;10.00;37453.60
1740135326.787;104;10.00;37453.60
1740135335.792;96;10.00;35366.40
1740135335.843;96;10.00;35366.40
1740135335.892;113;10.00;39589.46
1740135335.942;113;10.00;39589.46
1740135335.992;113;10.00;39589.46
1740135336.042;108;10.00;38270.13
1740135336.092;108;10.00;38270.13
1740135336.142;100;10.00;36284.54
1740135336.192;100;10.00;36284.54
1740135336.242;100;10.00;36284.54
1740135336.292;108;10.00;38414.13
1740135336.343;108;10.00;38414.13
1740135336.543;100;10.00;36365.60
1740135336.593;100;10.00;36365.60
1740135336.643;102;10.00;36826.13
1740135336.693;102;10.00;36826.13
1740135336.743;102;10.00;36826.13
1740135336.793;103;10.00;37102.33
1740135336.844;103;10.00;37102.33
1740135336.894;107;10.00;38022.40
1740135336.944;107;10.00;38022.40
1740135336.994;105;10.00;37572.27
1740135337.044;102;10.00;36886.13
1740135337.094;102;10.00;36886.13
1740135337.145;100;10.00;36280.27
1740135337.194;100;10.00;36280.27
1740135337.245;107;10.00;38051.07
1740135337.295;109;10.00;38526.00
1740135337.344;109;10.00;38526.00
1740135337.395;101;10.00;36658.54
1740135337.446;101;10.00;36658.54
1740135337.496;96;10.00;35399.46
1740135337.545;99;10.00;36010.13
1740135337.595;99;10.00;36010.13
1740135337.645;98;10.00;35801.20
1740135337.695;98;10.00;35801.20
1740135337.746;103;10.00;37236.80
1740135337.795;104;10.00;37450.27
1740135337.846;104;10.00;37450.27
1740135337.896;100;10.00;36321.46
1740135337.946;100;10.00;36321.46
1740135337.998;109;10.00;38657.87
1740135338.048;109;10.00;38657.87
1740135338.098;110;10.00;38742.40
1740135338.148;100;10.00;36260.93
1740135338.198;100;10.00;36260.93
1740135338.249;95;10.00;35232.67
1740135338.298;95;10.00;35232.67
1740135338.348;95;10.00;35232.67
1740135338.398;101;10.00;36641.46
1740135338.448;101;10.00;36641.46
1740135338.499;98;10.00;35925.60
1740135338.549;98;10.00;35925.60
1740135338.599;109;10.00;38635.73
1740135338.650;106;10.00;37786.00
1740135338.699;106;10.00;37786.00
1740135338.750;95;10.00;35211.73
1740135338.800;106;10.00;37936.80
1740135338.850;106;10.00;37936.80
1740135338.900;103;10.00;37123.20
1740135338.950;103;10.00;37123.20
1740135339.000;102;10.00;36887.87
1740135339.050;102;10.00;36887.87
1740135339.100;102;10.00;36887.87
1740135339.150;104;10.00;37272.93
1740135339.200;104;10.00;37272.93
1740135339.250;106;10.00;37946.80
1740135339.300;106;10.00;37946.80
1740135339.351;106;10.00;37946.80
1740135339.401;101;10.00;36744.13
1740135339.450;101;10.00;36744.13
1740135339.501;98;10.00;35856.00
1740135339.551;98;10.00;35856.00
1740135339.600;107;10.00;38175.87
1740135339.651;107;10.00;38175.87
1740135339.701;107;10.00;38175.87
1740135339.751;106;10.00;37857.33
1740135339.800;106;10.00;37857.33
1740135339.850;110;10.00;38832.54
1740135339.901;111;10.00;39135.33
1740135339.952;111;10.00;39135.33
1740135340.001;99;10.00;36039.87
1740135340.052;99;10.00;36039.87
1740135340.101;106;10.00;37823.20
1740135340.152;112;10.00;39431.73
1740135340.201;112;10.00;39431.73
1740135340.252;102;10.00;36837.07
1740135340.301;102;10.00;36837.07
1740135340.352;107;10.00;38074.40
1740135349.375;97;10.00;35563.73
1740135349.425;97;10.00;35563.73
1740135349.475;94;10.00;34904.54
1740135349.525;97;10.00;35505.67
1740135349.575;97;10.00;35505.67
1740135349.625;109;10.00;38667.73
1740135349.675;109;10.00;38667.73
1740135349.725;99;10.00;36235.46
1740135349.776;100;10.00;36342.00
1740135349.825;100;10.00;36342.00
1740135349.876;104;10.00;37332.27
1740135349.925;104;10.00;37332.27
1740135349.975;107;10.00;38015.33
1740135350.025;103;10.00;37188.27
1740135350.075;103;10.00;37188.27
1740135350.125;103;10.00;37196.40
1740135350.175;103;10.00;37196.40
1740135350.225;100;10.00;36495.46
1740135350.275;110;10.00;38831.20
1740135350.325;110;10.00;38831.20
1740135350.375;108;10.00;38383.60
1740135350.425;108;10.00;38383.60
1740135350.475;109;10.00;38645.60
1740135350.525;108;10.00;38468.54
1740135350.575;108;10.00;38468.54
1740135350.625;94;10.00;34924.27
1740135350.675;94;10.00;34924.27
1740135350.725;98;10.00;35840.00
1740135350.775;95;10.00;35104.80
1740135350.825;95;10.00;35104.80
1740135350.875;109;10.00;38632.93
1740135350.926;109;10.00;38632.93
1740135350.975;109;10.00;38632.93
1740135351.025;109;10.00;38536.67
1740135351.075;109;10.00;38536.67
1740135351.126;109;10.00;38553.87
1740135351.176;109;10.00;38553.87
1740135351.226;102;10.00;36802.67
1740135351.277;97;10.00;35624.67
1740135351.326;97;10.00;35624.67
1740135351.526;97;10.00;35745.73
1740135351.576;97;10.00;35745.73
1740135351.627;110;10.00;38895.87
1740135351.676;110;10.00;38895.87
1740135351.726;108;10.00;38378.13
1740135351.776;108;10.00;38378.13
1740135351.826;108;10.00;38378.13
1740135351.876;109;10.00;38723.87
1740135351.926;109;10.00;38723.87
1740135351.976;108;10.00;38371.73
1740135352.027;103;10.00;37038.27
1740135352.076;103;10.00;37038.27
1740135352.126;109;10.00;38715.33
1740135352.176;109;10.00;38715.33
1740135352.226;98;10.00;35939.20
1740135352.278;98;10.00;35931.33
1740135352.328;98;10.00;35931.33
1740135352.378;99;10.00;36124.54
1740135352.427;99;10.00;36124.54
1740135352.477;99;10.00;36226.60
1740135352.527;95;10.00;35136.27
1740135352.578;95;10.00;35136.27
1740135352.628;102;10.00;36926.27
1740135352.678;102;10.00;36926.27
1740135352.728;112;10.00;39266.00
1740135352.778;112;10.00;39266.00
1740135352.828;112;10.00;39266.00
1740135352.878;106;10.00;37871.46
1740135352.927;106;10.00;37871.46
1740135352.978;108;10.00;38414.93
1740135353.028;109;10.00;38528.00
1740135353.078;109;10.00;38528.00
1740135353.128;106;10.00;37758.93
1740135353.177;106;10.00;37758.93
1740135353.227;103;10.00;37119.80
1740135353.277;103;10.00;37119.80
1740135353.327;112;10.00;39355.27
1740135353.378;114;10.00;39867.46
1740135353.428;114;10.00;39867.46
1740135353.477;107;10.00;38234.93
1740135353.528;107;10.00;38234.93
1740135353.578;107;10.00;38234.93
1740135353.629;103;10.00;37118.67
1740135353.678;103;10.00;37118.67
1740135353.728;98;10.00;35899.73
1740135353.778;98;10.00;35899.73
1740135353.828;116;10.00;40429.60
1740135353.879;111;10.00;39088.40
1740135353.929;111;10.00;39088.40
1740135461.873;95;50.00;35184.13
1740135461.923;95;50.00;35184.13
1740135461.973;101;50.00;36657.07
1740135462.022;101;50.00;36657.07
1740135462.072;110;50.00;38975.46
1740135462.123;110;50.00;38975.46
1740135462.172;110;50.00;38975.46
1740135462.223;113;50.00;39645.40
1740135462.272;113;50.00;39645.40
1740135462.323;96;50.00;35347.20
1740135462.372;105;50.00;37553.33
1740135462.423;105;50.00;37553.33
1740135462.473;107;50.00;38215.73
1740135462.523;107;50.00;38215.73
1740135462.574;97;50.00;35586.60
1740135462.624;104;50.00;37466.93
1740135462.674;104;50.00;37466.93
1740135462.824;105;50.00;37647.13
1740135462.874;97;50.00;35642.13
1740135462.925;97;50.00;35642.13
1740135462.975;113;50.00;39700.54
1740135463.025;113;50.00;39700.54
1740135463.075;117;50.00;40687.20
1740135463.125;117;50.00;40687.20
1740135463.175;117;50.00;40687.20
1740135463.225;115;50.00;40121.33
1740135463.275;115;50.00;40121.33
1740135463.325;117;50.00;40679.20
1740135463.475;94;50.00;34823.20
1740135463.525;94;50.00;34823.20
1740135463.575;115;50.00;39985.46
1740135463.626;115;50.00;39985.46
1740135463.678;115;50.00;40198.40
1740135463.727;101;50.00;36694.13
1740135463.777;101;50.00;36694.13
1740135463.827;105;50.00;37565.33
1740135463.877;97;50.00;35682.93
1740135463.927;97;50.00;35682.93
1740135463.978;115;50.00;40206.33
1740135464.028;115;50.00;40206.33
1740135464.077;119;50.00;41172.20
1740135464.128;108;50.00;38445.87
1740135464.177;108;50.00;38445.87
1740135464.227;95;50.00;35202.13
1740135464.277;95;50.00;35202.13
1740135464.328;111;50.00;39208.93
1740135464.378;100;50.00;36494.13
1740135464.428;100;50.00;36494.13
1740135464.477;116;50.00;40304.80
1740135464.528;116;50.00;40304.80
1740135464.577;117;50.00;40700.80
1740135464.628;117;50.00;40700.80
1740135464.678;117;50.00;40700.80
1740135464.729;107;50.00;38240.54
1740135464.779;107;50.00;38240.54
1740135464.829;119;50.00;41168.54
1740135464.878;96;50.00;35465.33
1740135464.929;96;50.00;35465.33
1740135464.978;95;50.00;35173.07
1740135465.029;95;50.00;35173.07
1740135465.079;113;50.00;39698.13
1740135465.129;105;50.00;37625.33
1740135465.178;105;50.00;37625.33
1740135465.229;96;50.00;35410.93
1740135465.279;93;50.00;34688.27
1740135465.329;93;50.00;34688.27
1740135465.379;102;50.00;36987.73
1740135465.429;102;50.00;36987.73
1740135465.479;109;50.00;38730.54
1740135465.528;109;50.00;38730.54
1740135465.578;99;50.00;36159.60
1740135465.630;102;50.00;36867.20
1740135465.680;102;50.00;36867.20
1740135465.729;111;50.00;39150.80
1740135465.780;111;50.00;39150.80
1740135465.830;98;50.00;35889.33
1740135465.979;97;50.00;35682.27
1740135466.030;97;50.00;35682.27
1740135466.079;116;50.00;40285.20
1740135466.130;116;50.00;40285.20
1740135466.180;116;50.00;40285.20
1740135466.231;116;50.00;40327.87
1740135466.280;116;50.00;40327.87
1740135466.332;110;50.00;38848.27
1740135466.381;110;50.00;38988.67
1740135466.432;110;50.00;38988.67
1740135466.582;112;50.00;39429.33
1740135475.288;105;50.00;37740.27
1740135475.339;104;50.00;37423.07
1740135475.389;104;50.00;37423.07
1740135475.489;120;50.00;41235.20
1740135475.539;100;50.00;36459.73
1740135475.589;100;50.00;36459.73
1740135475.642;106;50.00;37822.40
1740135475.690;113;50.00;39715.93
1740135475.740;113;50.00;39715.93
1740135475.790;116;50.00;40413.60
1740135475.840;116;50.00;40413.60
1740135475.891;118;50.00;40812.20
1740135475.941;106;50.00;37867.07
1740135475.990;106;50.00;37867.07
1740135476.041;94;50.00;34761.73
1740135476.091;94;50.00;34761.73
1740135476.141;94;50.00;34761.73
1740135476.191;119;50.00;40997.73
1740135476.241;119;50.00;40997.73
1740135476.290;102;50.00;36987.60
1740135476.341;102;50.00;36987.60
1740135476.391;105;50.00;37623.46
1740135476.441;96;50.00;35296.80
1740135476.491;96;50.00;35296.80
1740135476.541;99;50.00;36116.27
1740135476.591;99;50.00;36116.27
1740135476.642;99;50.00;36116.27
1740135476.691;113;50.00;39677.33
1740135476.742;113;50.00;39677.33
1740135476.791;101;50.00;36723.87
1740135476.842;101;50.00;36723.87
1740135476.891;101;50.00;36723.87
1740135476.942;116;50.00;40245.87
1740135476.991;116;50.00;40245.87
1740135477.042;100;50.00;36270.40
1740135477.092;96;50.00;35451.20
1740135477.142;96;50.00;35451.20
1740135477.192;115;50.00;40056.27
1740135477.242;115;50.00;40056.27
1740135477.292;105;50.00;37547.40
1740135477.342;105;50.00;37547.40
1740135477.392;100;50.00;36286.87
1740135477.542;107;50.00;38053.60
1740135477.592;107;50.00;38053.60
1740135477.642;107;50.00;38053.60
1740135477.692;120;50.00;41238.13
1740135477.742;120;50.00;41238.13
1740135477.792;118;50.00;40798.13
1740135477.843;118;50.00;40798.13
1740135477.893;118;50.00;40798.13
1740135477.942;102;50.00;36944.67
1740135477.993;102;50.00;36944.67
1740135478.042;96;50.00;35374.54
1740135478.093;103;50.00;37068.27
1740135478.142;103;50.00;37068.27
1740135478.192;117;50.00;40510.80
1740135478.242;117;50.00;40510.80
1740135478.292;113;50.00;39604.80
1740135478.342;113;50.00;39604.80
1740135478.392;115;50.00;39997.73
1740135478.442;104;50.00;37386.67
1740135478.493;104;50.00;37386.67
1740135478.543;120;50.00;41272.54
1740135478.593;120;50.00;41272.54
1740135478.643;119;50.00;41081.33
1740135478.692;104;50.00;37330.93
1740135478.742;104;50.00;37330.93
1740135478.793;119;50.00;41010.13
1740135478.843;119;50.00;41010.13
1740135478.893;106;50.00;37804.93
1740135478.944;106;50.00;37804.93
1740135478.993;106;50.00;37804.93
1740135479.043;115;50.00;39985.20
1740135479.093;115;50.00;39985.20
1740135479.144;115;50.00;40136.67
1740135479.194;101;50.00;36707.20
1740135479.244;101;50.00;36707.20
1740135479.294;111;50.00;38997.87
1740135479.343;111;50.00;38997.87
1740135479.394;94;50.00;34879.87
1740135479.444;94;50.00;34879.87
1740135479.494;106;50.00;37820.80
1740135479.544;115;50.00;40076.93
1740135479.594;115;50.00;40076.93
1740135479.644;120;50.00;41420.27
1740135479.694;120;50.00;41420.27
1740135479.744;120;50.00;41420.27
1740135479.794;106;50.00;37747.20
1740135479.845;106;50.00;37747.20
1740135479.894;100;50.00;36419.93
1740135479.944;100;50.00;36419.93
1740135479.995;100;50.00;36419.93
1740135480.045;98;50.00;35939.46
1740135480.095;98;50.00;35939.46
1740135480.145;106;50.00;37795.87
1740135480.194;99;50.00;36099.20
1740135480.245;99;50.00;36099.20
1740135480.294;116;50.00;40278.54
1740135480.345;116;50.00;40278.54
1740135480.395;116;50.00;40278.54
1740135489.104;96;50.00;35273.87
1740135489.154;102;50.00;36983.46
1740135489.204;98;50.00;35847.07
1740135489.255;98;50.00;35847.07
1740135489.304;107;50.00;38031.87
1740135489.355;107;50.00;38031.87
1740135489.405;107;50.00;38031.87
1740135489.455;105;50.00;37572.27
1740135489.505;105;50.00;37572.27
1740135489.555;107;50.00;38029.87
1740135489.606;102;50.00;36938.00
1740135489.656;102;50.00;36938.00
1740135489.706;117;50.00;40565.07
1740135489.756;117;50.00;40565.07
1740135489.806;109;50.00;38602.54
1740135489.856;109;50.00;38602.54
1740135489.906;94;50.00;34805.20
1740135489.956;95;50.00;35125.20
1740135490.006;95;50.00;35125.20
1740135490.056;115;50.00;40006.93
1740135490.106;115;50.00;40006.93
1740135490.156;115;50.00;40079.20
1740135490.206;98;50.00;35780.67
1740135490.257;98;50.00;35780.67
1740135490.306;119;50.00;41076.13
1740135490.356;119;50.00;41076.13
1740135490.406;107;50.00;38183.20
1740135490.456;106;50.00;37919.20
1740135490.508;106;50.00;37919.20
1740135490.557;95;50.00;35175.87
1740135490.606;96;50.00;35281.87
1740135490.656;96;50.00;35281.87
1740135490.706;119;50.00;41211.73
1740135490.757;119;50.00;41211.73
1740135490.806;112;50.00;39424.60
1740135490.856;112;50.00;39424.60
1740135490.907;106;50.00;37755.46
1740135490.957;99;50.00;36131.73
1740135491.007;99;50.00;36131.73
1740135491.057;112;50.00;39385.07
1740135491.107;112;50.00;39385.07
1740135491.157;97;50.00;35561.07
1740135491.207;102;50.00;36831.33
1740135491.257;102;50.00;36831.33
1740135491.306;114;50.00;39884.27
1740135491.357;114;50.00;39884.27
1740135491.407;116;50.00;40260.80
1740135491.457;116;50.00;40260.80
1740135491.507;105;50.00;37708.80
1740135491.557;107;50.00;38069.33
1740135491.607;107;50.00;38069.33
1740135491.657;114;50.00;39860.80
1740135491.708;114;50.00;39860.80
1740135491.757;114;50.00;39860.80
1740135491.908;113;50.00;39732.40
1740135491.957;113;50.00;39732.40
1740135492.008;113;50.00;39732.40
1740135492.057;105;50.00;37637.33
1740135492.107;113;50.00;39693.20
1740135492.158;113;50.00;39693.20
1740135492.208;113;50.00;39599.07
1740135492.258;113;50.00;39599.07
1740135492.310;95;50.00;35249.73
1740135492.360;101;50.00;36605.60
1740135492.409;101;50.00;36605.60
1740135492.459;115;50.00;40232.13
1740135492.510;115;50.00;40232.13
1740135492.560;115;50.00;40232.13
1740135492.610;117;50.00;40592.67
1740135492.659;117;50.00;40592.67
1740135492.709;119;50.00;41052.54
1740135492.760;119;50.00;41052.54
1740135492.810;95;50.00;35209.60
1740135492.860;95;50.00;35100.80
1740135492.910;95;50.00;35100.80
1740135492.961;97;50.00;35644.87
1740135493.010;108;50.00;38301.33
1740135493.060;108;50.00;38301.33
1740135493.110;119;50.00;41071.20
1740135493.161;119;50.00;41071.20
1740135493.212;118;50.00;40840.00
1740135493.262;118;50.00;40840.00
1740135493.311;104;50.00;37437.00
1740135493.362;106;50.00;37777.54
1740135493.412;106;50.00;37777.54
1740135493.462;120;50.00;41324.13
1740135493.512;120;50.00;41324.13
1740135493.562;104;50.00;37396.00
1740135493.611;108;50.00;38482.93
1740135493.662;108;50.00;38482.93
1740135493.711;116;50.00;40418.54
1740135493.761;116;50.00;40418.54
1740135493.813;104;50.00;37494.13
1740135493.863;104;50.00;37494.13
1740135493.912;104;50.00;37494.13
1740135493.963;116;50.00;40427.46
1740135494.012;116;50.00;40427.46
1740135494.062;116;50.00;40462.40
1740135494.112;100;50.00;36412.00
1740135494.163;100;50.00;36412.00
1740135598.289;93;30.00;34611.33
1740135598.338;93;30.00;34611.33
1740135598.389;95;30.00;35200.20
1740135598.439;95;30.00;35200.20
1740135598.490;116;30.00;40360.00
1740135598.539;98;30.00;35848.80
1740135598.589;98;30.00;35848.80
1740135598.640;112;30.00;39303.33
1740135598.690;112;30.00;39303.33
1740135598.740;95;30.00;35130.67
1740135598.791;100;30.00;36410.93
1740135598.840;100;30.00;36410.93
1740135598.890;103;30.00;37242.40
1740135598.940;103;30.00;37242.40
1740135598.991;103;30.00;37242.40
1740135599.041;116;30.00;40402.40
1740135599.091;116;30.00;40402.40
1740135599.141;105;30.00;37553.07
1740135599.191;105;30.00;37553.07
1740135599.241;109;30.00;38699.60
1740135599.291;114;30.00;39950.40
1740135599.341;114;30.00;39950.40
1740135599.391;120;30.00;41355.20
1740135599.441;120;30.00;41355.20
1740135599.491;120;30.00;41355.20
1740135599.541;117;30.00;40534.00
1740135599.591;117;30.00;40534.00
1740135599.642;111;30.00;39111.73
1740135599.691;111;30.00;39111.73
1740135599.741;106;30.00;37927.73
1740135599.791;107;30.00;38026.54
1740135599.841;107;30.00;38026.54
1740135599.891;119;30.00;41075.73
1740135599.942;119;30.00;41075.73
1740135599.991;110;30.00;38918.33
1740135600.041;108;30.00;38276.00
1740135600.091;108;30.00;38276.00
1740135600.141;101;30.00;36670.13
1740135600.192;101;30.00;36670.13
1740135600.241;104;30.00;37431.20
1740135600.291;117;30.00;40513.07
1740135600.342;117;30.00;40513.07
1740135600.391;119;30.00;41115.46
1740135600.442;119;30.00;41115.46
1740135600.492;119;30.00;41115.46
1740135600.541;119;30.00;41027.46
1740135600.592;119;30.00;41027.46
1740135600.641;102;30.00;36869.60
1740135600.692;102;30.00;36869.60
1740135600.742;112;30.00;39386.93
1740135600.792;106;30.00;37919.07
1740135600.842;106;30.00;37919.07
1740135600.892;118;30.00;40926.67
1740135600.942;118;30.00;40926.67
1740135600.992;117;30.00;40516.13
1740135601.042;101;30.00;36539.46
1740135601.092;101;30.00;36539.46
1740135601.142;117;30.00;40684.00
1740135601.192;117;30.00;40684.00
1740135601.242;117;30.00;40684.00
1740135601.292;116;30.00;40475.20
1740135601.342;116;30.00;40475.20
1740135601.392;119;30.00;41067.46
1740135601.442;119;30.00;41067.46
1740135601.492;109;30.00;38681.20
1740135601.542;94;30.00;34837.07
1740135601.592;94;30.00;34837.07
1740135601.643;110;30.00;38747.60
1740135601.692;110;30.00;38747.60
1740135601.742;98;30.00;35821.46
1740135601.792;106;30.00;37958.46
1740135601.842;106;30.00;37958.46
1740135601.893;113;30.00;39669.46
1740135601.942;113;30.00;39669.46
1740135601.993;102;30.00;36827.46
1740135602.043;96;30.00;35294.00
1740135602.093;96;30.00;35294.00
1740135602.143;118;30.00;40972.27
1740135602.194;118;30.00;40972.27
1740135602.244;121;30.00;41549.87
1740135602.293;97;30.00;35685.07
1740135602.344;97;30.00;35685.07
1740135602.395;97;30.00;35558.67
1740135602.444;97;30.00;35558.67
1740135602.495;97;30.00;35558.67
1740135602.544;117;30.00;40502.67
1740135602.595;117;30.00;40502.67
1740135602.645;107;30.00;38043.80
1740135602.696;107;30.00;38043.80
1740135602.746;103;30.00;37191.60
1740135602.796;107;30.00;38106.67
1740135602.846;107;30.00;38106.67
1740135602.896;117;30.00;40572.54
1740135602.946;117;30.00;40572.54
1740135602.996;115;30.00;40226.27
1740135603.046;97;30.00;35674.40
1740135603.096;97;30.00;35674.40
1740135603.146;112;30.00;39349.87
1740135603.196;112;30.00;39349.87
1740135603.246;117;30.00;40582.13
1740135612.153;103;30.00;37085.60
1740135612.203;104;30.00;37415.20
1740135612.253;104;30.00;37415.20
1740135612.303;110;30.00;38945.33
1740135612.353;110;30.00;38945.33
1740135612.403;110;30.00;38945.33
1740135612.453;116;30.00;40416.54
1740135612.503;116;30.00;40416.54
1740135612.553;101;30.00;36672.27
1740135612.603;101;30.00;36672.27
1740135612.653;100;30.00;36271.40
1740135612.703;103;30.00;37026.67
1740135612.753;103;30.00;37026.67
1740135612.803;103;30.00;37074.80
1740135612.853;103;30.00;37074.80
1740135612.904;103;30.00;37074.80
1740135612.953;114;30.00;39752.80
1740135613.003;114;30.00;39752.80
1740135613.054;118;30.00;40824.00
1740135613.103;118;30.00;40824.00
1740135613.153;114;30.00;39803.60
1740135613.204;114;30.00;39803.60
1740135613.253;114;30.00;39803.60
1740135613.303;117;30.00;40584.13
1740135613.354;117;30.00;40584.13
1740135613.404;97;30.00;35587.46
1740135613.453;97;30.00;35587.46
1740135613.504;97;30.00;35587.46
1740135613.553;101;30.00;36619.87
1740135613.603;101;30.00;36619.87
1740135613.654;96;30.00;35370.40
1740135613.704;96;30.00;35437.07
1740135613.754;96;30.00;35437.07
1740135613.804;100;30.00;36281.07
1740135613.853;100;30.00;36281.07
1740135613.904;112;30.00;39378.00
1740135613.954;106;30.00;37961.07
1740135614.004;106;30.00;37961.07
1740135614.054;115;30.00;40206.33
1740135614.103;115;30.00;40206.33
1740135614.154;110;30.00;38930.80
1740135614.203;110;30.00;38930.80
1740135614.253;112;30.00;39328.80
1740135614.304;111;30.00;39170.13
1740135614.354;111;30.00;39170.13
1740135614.404;111;30.00;39024.00
1740135614.455;111;30.00;39024.00
1740135614.504;104;30.00;37356.00
1740135614.554;118;30.00;40882.00
1740135614.604;118;30.00;40882.00
1740135614.654;107;30.00;38013.73
1740135614.704;107;30.00;38013.73
1740135614.754;112;30.00;39370.27
1740135614.804;112;30.00;39370.27
1740135614.854;112;30.00;39370.27
1740135614.904;110;30.00;38947.40
1740135614.955;110;30.00;38947.40
1740135615.005;110;30.00;38947.40
1740135615.055;100;30.00;36472.80
1740135615.104;100;30.00;36472.80
1740135615.155;110;30.00;38945.93
1740135615.205;110;30.00;38945.93
1740135615.255;98;30.00;35770.80
1740135615.304;98;30.00;35770.80
1740135615.354;98;30.00;35770.80
1740135615.405;115;30.00;40162.40
1740135615.455;115;30.00;40162.40
1740135615.504;118;30.00;40752.00
1740135615.555;105;30.00;37693.33
1740135615.604;105;30.00;37693.33
1740135615.655;99;30.00;36181.87
1740135615.706;99;30.00;36181.87
1740135615.757;105;30.00;37519.73
1740135615.806;105;30.00;37519.73
1740135615.856;105;30.00;37519.73
1740135615.906;111;30.00;39019.07
1740135615.957;111;30.00;39019.07
1740135616.007;113;30.00;39647.20
1740135616.056;113;30.00;39647.20
1740135616.106;113;30.00;39647.20
1740135616.156;118;30.00;40806.40
1740135616.206;118;30.00;40806.40
1740135616.257;94;30.00;34957.87
1740135616.308;94;30.00;34957.87
1740135616.357;94;30.00;34957.87
1740135616.406;108;30.00;38435.87
1740135616.456;108;30.00;38435.87
1740135616.506;96;30.00;35447.20
1740135616.556;116;30.00;40259.46
1740135616.606;116;30.00;40259.46
1740135616.656;118;30.00;40814.54
1740135616.706;118;30.00;40814.54
1740135625.650;96;30.00;35366.54
1740135625.701;97;30.00;35515.73
1740135625.750;97;30.00;35515.73
1740135625.801;103;30.00;37207.46
1740135625.850;96;30.00;35330.67
1740135625.900;99;30.00;36053.60
1740135625.950;101;30.00;36546.00
1740135626.001;101;30.00;36546.00
1740135626.050;99;30.00;36045.87
1740135626.101;105;30.00;37690.27
1740135626.151;105;30.00;37690.27
1740135626.201;114;30.00;39914.93
1740135626.251;114;30.00;39914.93
1740135626.301;112;30.00;39276.00
1740135626.351;116;30.00;40401.46
1740135626.401;116;30.00;40401.46
1740135626.451;119;30.00;41064.46
1740135626.501;119;30.00;41064.46
1740135626.551;109;30.00;38642.13
1740135626.601;98;30.00;35759.73
1740135626.651;98;30.00;35759.73
1740135626.701;103;30.00;37001.33
1740135626.751;103;30.00;37001.33
1740135626.801;104;30.00;37444.93
1740135626.851;99;30.00;36036.00
1740135626.901;99;30.00;36036.00
1740135626.951;111;30.00;39228.54
1740135627.001;111;30.00;39228.54
1740135627.051;105;30.00;37515.73
1740135627.101;110;30.00;38753.60
1740135627.151;110;30.00;38753.60
1740135627.202;119;30.00;41065.07
1740135627.251;119;30.00;41065.07
1740135627.301;107;30.00;38028.80
1740135627.351;107;30.00;38028.80
1740135627.401;107;30.00;38028.80
1740135627.451;119;30.00;41056.07
1740135627.501;119;30.00;41056.07
1740135627.551;118;30.00;40788.27
1740135627.601;118;30.00;40788.27
1740135627.652;118;30.00;40788.27
1740135627.701;110;30.00;38913.07
1740135627.752;110;30.00;38913.07
1740135627.802;119;30.00;40988.54
1740135627.853;112;30.00;39300.27
1740135627.903;112;30.00;39300.27
1740135627.952;119;30.00;41095.33
1740135628.002;119;30.00;41095.33
1740135628.052;114;30.00;39864.93
1740135628.103;105;30.00;37612.13
1740135628.153;105;30.00;37612.13
1740135628.202;118;30.00;40825.60
1740135628.252;118;30.00;40825.60
1740135628.302;94;30.00;34951.73
1740135628.352;97;30.00;35740.80
1740135628.402;97;30.00;35740.80
1740135628.452;104;30.00;37435.33
1740135628.502;104;30.00;37435.33
1740135628.553;98;30.00;35957.27
1740135628.603;105;30.00;37743.46
1740135628.653;105;30.00;37743.46
1740135628.703;119;30.00;41100.54
1740135628.753;119;30.00;41100.54
1740135628.802;117;30.00;40520.00
1740135628.852;117;30.00;40520.00
1740135628.902;117;30.00;40520.00
1740135628.952;106;30.00;37779.20
1740135629.003;106;30.00;37779.20
1740135629.052;108;30.00;38476.13
1740135629.103;109;30.00;38661.60
1740135629.153;109;30.00;38661.60
1740135629.203;117;30.00;40643.20
1740135629.253;117;30.00;40643.20
1740135629.302;117;30.00;40643.20
1740135629.353;119;30.00;41021.07
1740135629.402;119;30.00;41021.07
1740135629.452;112;30.00;39280.00
1740135629.502;109;30.00;38647.20
1740135629.553;109;30.00;38647.20
1740135629.603;114;30.00;39891.46
1740135629.653;114;30.00;39891.46
1740135629.703;117;30.00;40562.93
1740135629.753;117;30.00;40562.93
1740135629.803;117;30.00;40562.93
1740135629.853;117;30.00;40666.13
1740135629.903;117;30.00;40666.13
1740135629.952;109;30.00;38715.07
1740135630.003;109;30.00;38715.07
1740135630.054;109;30.00;38715.07
1740135630.105;118;30.00;40955.20
1740135630.155;118;30.00;40955.20
1740135630.205;113;30.00;39670.40
1740135630.254;96;30.00;35477.87
1740135630.305;96;30.00;35477.87
1740135630.354;98;30.00;35914.67
1740135630.405;98;30.00;35914.67
1740135630.455;98;30.00;35817.60
1740135630.505;101;30.00;36523.20
1740135630.555;101;30.00;36523.20
