UnixTimestamp;Microseconds;MilliAmpere;BaseValue
1725893110.725;500;1.00
1725893110.772;500;1.00
1725893110.822;500;1.00
1725893110.873;500;1.00
1725893110.923;500;1.00
1725893110.973;500;1.00
1725893111.023;500;1.00
1725893111.073;500;1.00
1725893111.123;500;1.00
1725893111.173;500;1.00
1725893111.223;500;1.00
1725893111.273;500;1.00
1725893111.323;500;1.00
1725893111.373;500;1.00
1725893111.422;500;1.00
1725893111.473;500;1.00
1725893111.523;500;1.00
1725893111.573;500;1.00
1725893111.624;500;1.00
1725893115.385;1;40.00
1725893115.436;1;40.00
1725893115.486;1;40.00
1725893115.536;1;40.00
1725893115.585;1;40.00
1725893115.636;1;40.00
1725893115.685;1;40.00
1725893115.736;1;40.00
1725893115.786;1;40.00
1725893115.836;1;40.00
1725893115.886;1;40.00
1725893115.937;1;40.00
1725893115.987;1;40.00
1725893116.037;1;40.00
1725893116.087;1;40.00
1725893116.137;1;40.00
1725893116.187;1;40.00
1725893116.237;1;40.00
1725893116.287;1;40.00
1725893116.338;1;40.00
1725893431.316;500;9.87;33668.87
1725893431.366;500;10.13;33976.27
1725893431.416;500;10.13;33976.27
1725893431.466;500;10.13;33976.27
1725893431.517;500;12.93;37242.60
1725893431.567;500;12.04;36200.54
1725893431.617;500;12.04;36200.54
1725893431.667;500;12.04;36200.54
1725893431.717;500;12.35;36560.40
1725893431.767;500;11.10;35105.07
1725893431.817;500;11.10;35105.07
1725893431.867;500;11.10;35105.07
1725893431.918;500;12.67;36935.00
1725893431.967;500;12.58;36827.60
1725893432.018;500;12.58;36827.60
1725893432.068;500;12.96;37278.00
1725893432.117;500;12.74;37020.54
1725893432.168;500;12.74;37020.54
1725893432.218;500;12.74;37020.54
1725893432.269;500;10.89;34857.93
1725893432.319;500;12.88;37185.07
1725893432.369;500;12.88;37185.07
1725893432.419;500;12.88;37185.07
1725893432.469;500;12.88;37180.80
1725893432.520;500;12.92;37233.73
1725893432.569;500;12.92;37233.73
1725893432.621;500;12.92;37233.73
1725893432.670;500;13.00;37323.00
1725893432.720;500;10.43;34317.73
1725893432.772;500;10.43;34317.73
1725893432.821;500;10.43;34317.73
1725893432.871;500;10.95;34930.46
1725893432.922;500;10.70;34638.40
1725893432.971;500;10.70;34638.40
1725893433.021;500;10.70;34638.40
1725893433.071;500;10.48;34377.33
1725893433.122;500;12.95;37261.27
1725893433.172;500;12.95;37261.27
1725893433.222;500;12.95;37261.27
1725893433.272;500;12.95;37261.00
1725893433.322;500;12.95;37261.00
1725893433.371;500;12.95;37261.00
1725893433.421;500;12.85;37153.20
1725893433.471;500;12.86;37156.80
1725893433.522;500;12.86;37156.80
1725893433.572;500;12.86;37156.80
1725893433.623;500;11.26;35287.46
1725893433.672;500;11.76;35869.00
1725893433.722;500;11.76;35869.00
1725893433.774;500;12.73;37003.13
1725893433.824;500;12.86;37159.33
1725893433.874;500;12.86;37159.33
1725893433.924;500;12.86;37159.33
1725893433.974;500;12.81;37096.27
1725893434.024;500;12.81;37096.27
1725893434.074;500;12.81;37096.27
1725893434.124;500;12.74;37024.60
1725893434.174;500;12.63;36895.73
1725893434.224;500;12.63;36895.73
1725893434.273;500;11.69;35795.07
1725893434.324;500;12.89;37198.27
1725893434.374;500;12.89;37198.27
1725893434.424;500;12.89;37198.27
1725893434.474;500;12.84;37137.33
1725893434.524;500;10.86;34829.27
1725893434.575;500;10.86;34829.27
1725893434.624;500;10.86;34829.27
1725893434.675;500;12.97;37285.73
1725893434.724;500;12.11;36280.73
1725893434.775;500;12.35;36563.00
1725893434.825;500;12.35;36563.00
1725893434.875;500;11.57;35655.54
1725893434.925;500;10.68;34612.54
1725893434.975;500;11.29;35320.20
1725893435.026;500;11.29;35320.20
1725893435.076;500;11.57;35649.33
1725893435.126;500;10.96;34942.54
1725893435.176;500;10.96;34942.54
1725893435.227;500;10.96;34942.54
1725893435.276;500;10.35;34231.46
1725893435.326;500;10.35;34231.46
1725893435.376;500;10.35;34231.46
1725893435.426;500;12.93;37241.54
1725893435.477;500;12.77;37049.33
1725893435.527;500;12.77;37049.33
1725893435.577;500;12.73;37007.93
1725893435.626;500;12.86;37153.87
1725893435.676;500;12.86;37153.87
1725893435.726;500;12.86;37153.87
1725893435.777;500;12.84;37134.33
1725893435.827;500;12.91;37214.27
1725893435.877;500;12.91;37214.27
1725893435.927;500;12.91;37214.27
1725893435.978;500;11.00;34989.13
1725893446.654;500;9.72;33490.93
1725893446.704;500;9.72;33490.93
1725893446.754;500;9.72;33490.93
1725893446.804;500;11.93;36068.80
1725893446.853;500;12.86;37155.93
1725893446.904;500;12.86;37155.93
1725893446.954;500;12.69;36957.13
1725893447.004;500;12.24;36439.46
1725893447.055;500;12.24;36439.46
1725893447.105;500;12.24;36439.46
1725893447.155;500;11.58;35659.20
1725893447.206;500;12.55;36794.40
1725893447.256;500;12.55;36794.40
1725893447.305;500;13.00;37323.00
1725893447.356;500;12.31;36512.46
1725893447.405;500;12.31;36512.46
1725893447.457;500;12.31;36515.60
1725893447.507;500;11.12;35122.00
1725893447.558;500;11.12;35122.00
1725893447.608;500;11.12;35122.00
1725893447.657;500;12.04;36206.80
1725893447.707;500;12.04;36206.80
1725893447.758;500;12.04;36206.80
1725893447.809;500;10.62;34539.67
1725893447.858;500;10.62;34539.67
1725893447.913;500;10.62;34539.67
1725893447.959;500;12.84;37138.40
1725893448.011;500;12.30;36504.54
1725893448.060;500;12.30;36504.54
1725893448.110;500;12.30;36504.54
1725893448.161;500;10.38;34258.07
1725893448.211;500;10.92;34893.00
1725893448.261;500;10.92;34893.00
1725893448.312;500;10.20;34047.07
1725893448.362;500;11.01;34995.67
1725893448.412;500;11.01;34995.67
1725893448.462;500;11.01;34995.67
1725893448.511;500;12.77;37051.27
1725893448.562;500;11.31;35348.93
1725893448.612;500;11.31;35348.93
1725893448.662;500;11.68;35781.00
1725893448.712;500;12.77;37056.00
1725893448.762;500;12.77;37056.00
1725893448.812;500;12.77;37056.00
1725893448.861;500;12.62;36885.00
1725893448.911;500;12.81;37104.00
1725893448.962;500;12.81;37104.00
1725893449.012;500;12.81;37104.00
1725893449.062;500;12.74;37019.13
1725893449.112;500;12.74;37019.13
1725893449.162;500;12.74;37019.13
1725893449.212;500;10.31;34176.67
1725893449.263;500;11.41;35464.87
1725893449.313;500;11.41;35464.87
1725893449.363;500;12.89;37191.00
1725893449.414;500;10.57;34481.54
1725893449.463;500;10.57;34481.54
1725893449.513;500;10.88;34848.60
1725893449.563;500;11.06;35060.27
1725893449.614;500;11.06;35060.27
1725893449.664;500;11.11;35117.07
1725893449.713;500;10.89;34859.60
1725893449.764;500;10.89;34859.60
1725893449.815;500;10.89;34859.60
1725893449.864;500;12.84;37137.33
1725893449.914;500;12.84;37137.33
1725893449.964;500;12.84;37137.33
1725893450.014;500;12.27;36470.07
1725893450.065;500;12.79;37075.20
1725893450.114;500;12.79;37075.20
1725893450.164;500;12.79;37075.20
1725893450.215;500;10.38;34263.80
1725893450.265;500;10.64;34569.60
1725893450.315;500;10.64;34569.60
1725893450.365;500;10.81;34761.13
1725893450.415;500;12.41;36632.20
1725893450.465;500;11.51;35581.27
1725893450.516;500;11.51;35581.27
1725893450.566;500;11.47;35531.54
1725893450.616;500;12.56;36803.67
1725893450.665;500;12.13;36303.00
1725893450.716;500;12.13;36303.00
1725893450.766;500;12.72;36994.73
1725893461.456;500;9.79;33574.54
1725893461.506;500;9.74;33520.27
1725893461.556;500;9.74;33520.27
1725893461.605;500;12.64;36898.07
1725893461.658;500;12.64;36898.07
1725893461.709;500;12.64;36898.07
1725893461.758;500;12.96;37275.13
1725893461.809;500;12.72;36990.73
1725893461.859;500;12.72;36990.73
1725893461.908;500;12.74;37023.73
1725893461.959;500;12.74;37023.73
1725893462.009;500;12.74;37023.73
1725893462.059;500;12.85;37153.54
1725893462.108;500;12.83;37129.20
1725893462.159;500;12.83;37129.20
1725893462.208;500;12.98;37299.07
1725893462.258;500;11.23;35252.20
1725893462.309;500;10.94;34920.07
1725893462.358;500;10.94;34920.07
1725893462.409;500;12.77;37055.93
1725893462.459;500;12.66;36927.33
1725893462.508;500;12.66;36927.33
1725893462.559;500;12.66;36927.33
1725893462.609;500;11.43;35486.07
1725893462.659;500;11.43;35486.07
1725893462.709;500;11.43;35486.07
1725893462.760;500;12.86;37156.00
1725893462.809;500;12.92;37224.33
1725893462.860;500;12.92;37224.33
1725893462.909;500;12.92;37224.33
1725893462.961;500;12.90;37204.54
1725893463.011;500;12.81;37097.13
1725893463.061;500;12.81;37097.13
1725893463.111;500;12.81;37097.13
1725893463.161;500;12.63;36895.07
1725893463.211;500;11.12;35125.60
1725893463.261;500;11.12;35125.60
1725893463.311;500;12.73;37010.54
1725893463.362;500;12.89;37190.46
1725893463.412;500;12.89;37190.46
1725893463.462;500;12.89;37190.46
1725893463.512;500;11.95;36096.54
1725893463.563;500;11.95;36096.54
1725893463.612;500;11.95;36096.54
1725893463.662;500;11.70;35807.40
1725893463.712;500;12.73;37004.80
1725893463.763;500;12.73;37004.80
1725893463.813;500;12.14;36323.54
1725893463.864;500;11.21;35230.46
1725893463.913;500;11.21;35230.46
1725893463.964;500;11.21;35230.46
1725893464.013;500;12.87;37172.60
1725893464.064;500;11.18;35195.27
1725893464.114;500;11.18;35195.27
1725893464.164;500;11.18;35195.27
1725893464.214;500;11.12;35125.27
1725893464.263;500;12.85;37149.60
1725893464.314;500;12.85;37149.60
1725893464.363;500;12.85;37149.60
1725893464.414;500;12.99;37312.27
1725893464.464;500;12.99;37312.27
1725893464.514;500;12.99;37312.27
1725893464.565;500;12.92;37227.93
1725893464.614;500;12.86;37154.00
1725893464.664;500;12.86;37154.00
1725893464.716;500;10.76;34706.07
1725893464.766;500;12.88;37182.87
1725893464.815;500;12.88;37182.87
1725893464.865;500;12.88;37182.87
1725893464.915;500;12.73;37009.67
1725893464.966;500;12.80;37094.40
1725893465.016;500;12.80;37094.40
1725893465.068;500;12.80;37094.40
1725893465.118;500;12.87;37169.27
1725893465.168;500;10.97;34955.00
1725893465.218;500;10.97;34955.00
1725893465.268;500;10.97;34955.00
1725893465.318;500;12.79;37079.73
1725893465.368;500;12.79;37079.73
1725893465.418;500;12.79;37079.73
1725893465.468;500;11.81;35935.67
1725893465.518;500;10.79;34746.40
1725893465.569;500;10.79;34746.40
1725893465.618;500;11.11;35114.33
1725893465.669;500;12.74;37016.54
1725893465.718;500;12.74;37016.54
1725893465.768;500;12.74;37016.54
1725893465.819;500;12.49;36721.80
1725893923.839;200;10.48;34384.93
1725893923.889;200;10.48;34384.93
1725893923.938;200;10.48;34384.93
1725893923.988;200;10.12;33957.46
1725893924.038;200;11.72;35823.80
1725893924.089;200;11.72;35823.80
1725893924.138;200;12.94;37253.67
1725893924.189;200;12.84;37133.67
1725893924.238;200;12.84;37133.67
1725893924.288;200;12.84;37133.67
1725893924.339;200;12.55;36792.93
1725893924.388;200;12.55;36792.93
1725893924.438;200;12.55;36792.93
1725893924.489;200;11.75;35860.27
1725893924.538;200;12.88;37178.54
1725893924.588;200;12.88;37178.54
1725893924.638;200;12.18;36360.33
1725893924.689;200;11.94;36079.46
1725893924.739;200;11.94;36079.46
1725893924.790;200;11.94;36079.46
1725893924.839;200;10.53;34433.33
1725893924.889;200;10.53;34433.33
1725893924.939;200;10.53;34433.33
1725893924.989;200;13.00;37323.00
1725893925.040;200;10.67;34601.54
1725893925.091;200;10.67;34601.54
1725893925.141;200;12.81;37106.60
1725893925.191;200;12.88;37179.33
1725893925.241;200;12.88;37179.33
1725893925.291;200;12.88;37179.33
1725893925.341;200;12.61;36869.54
1725893925.392;200;12.61;36869.54
1725893925.441;200;12.61;36869.54
1725893925.491;200;12.15;36327.93
1725893925.542;200;11.40;35450.20
1725893925.592;200;11.40;35450.20
1725893925.642;200;11.40;35450.20
1725893925.693;200;12.83;37121.93
1725893925.742;200;10.53;34433.87
1725893925.793;200;10.53;34433.87
1725893925.843;200;11.95;36095.73
1725893925.894;200;13.00;37323.00
1725893925.944;200;13.00;37323.00
1725893925.995;200;13.00;37323.00
1725893926.044;200;12.93;37242.80
1725893926.094;200;12.44;36672.80
1725893926.145;200;12.44;36672.80
1725893926.196;200;12.44;36672.80
1725893926.247;200;12.85;37142.80
1725893926.298;200;12.30;36500.60
1725893926.348;200;12.30;36500.60
1725893926.397;200;11.23;35260.20
1725893926.447;200;12.88;37187.80
1725893926.497;200;12.88;37187.80
1725893926.547;200;12.88;37187.80
1725893926.597;200;10.62;34542.27
1725893926.647;200;10.61;34532.93
1725893926.697;200;10.61;34532.93
1725893926.747;200;10.77;34713.87
1725893926.797;200;11.69;35792.73
1725893926.847;200;11.69;35792.73
1725893926.897;200;11.69;35792.73
1725893926.947;200;11.49;35558.33
1725893926.997;200;11.49;35558.33
1725893927.047;200;11.49;35558.33
1725893927.097;200;11.02;35006.27
1725893927.147;200;11.45;35516.33
1725893927.197;200;11.45;35516.33
1725893927.247;200;12.61;36866.20
1725893927.298;200;12.52;36766.00
1725893927.348;200;12.52;36766.00
1725893927.397;200;12.52;36766.00
1725893927.448;200;11.20;35222.13
1725893927.498;200;11.20;35222.13
1725893927.547;200;11.20;35222.13
1725893927.598;200;11.20;35222.13
1725893927.648;200;13.00;37323.00
1725893927.697;200;12.78;37062.80
1725893927.748;200;12.78;37062.80
1725893927.797;200;12.78;37062.80
1725893927.848;200;10.24;34100.67
1725893927.899;200;10.24;34100.67
1725893927.948;200;10.24;34100.67
1725893927.999;200;12.91;37216.54
1725893928.048;200;12.85;37150.33
1725893928.100;200;12.85;37150.33
1725893928.148;200;10.06;33889.80
1725893928.198;200;13.00;37321.20
1725893938.726;200;10.11;33944.13
1725893938.776;200;10.04;33866.54
1725893938.826;200;10.04;33866.54
1725893938.876;200;10.04;33866.54
1725893938.927;200;11.64;35735.27
1725893938.977;200;11.64;35735.27
1725893939.027;200;11.64;35735.27
1725893939.078;200;11.86;35997.07
1725893939.127;200;10.15;33991.20
1725893939.177;200;10.58;34496.80
1725893939.228;200;10.58;34496.80
1725893939.278;200;10.30;34174.33
1725893939.327;200;10.27;34130.54
1725893939.378;200;10.27;34130.54
1725893939.428;200;11.27;35304.54
1725893939.478;200;12.99;37307.87
1725893939.528;200;12.99;37307.87
1725893939.579;200;12.99;37307.87
1725893939.628;200;10.64;34561.33
1725893939.679;200;12.89;37196.40
1725893939.728;200;12.89;37196.40
1725893939.779;200;12.10;36270.20
1725893939.829;200;11.48;35544.33
1725893939.879;200;11.48;35544.33
1725893939.929;200;11.48;35544.33
1725893939.979;200;12.82;37117.27
1725893940.029;200;12.74;37023.27
1725893940.079;200;12.74;37023.27
1725893940.129;200;11.25;35284.00
1725893940.180;200;12.29;36493.27
1725893940.230;200;12.29;36493.27
1725893940.280;200;12.29;36493.27
1725893940.330;200;12.10;36270.07
1725893940.379;200;11.82;35944.33
1725893940.429;200;11.82;35944.33
1725893940.480;200;11.82;35944.33
1725893940.529;200;11.36;35403.33
1725893940.580;200;11.36;35403.33
1725893940.629;200;11.36;35403.33
1725893940.680;200;12.27;36466.40
1725893940.729;200;12.93;37241.67
1725893940.780;200;12.93;37241.67
1725893940.830;200;12.93;37241.67
1725893940.881;200;13.00;37323.00
1725893940.931;200;12.53;36771.93
1725893940.981;200;12.53;36771.93
1725893941.031;200;10.42;34309.20
1725893941.081;200;12.92;37228.60
1725893941.132;200;12.92;37228.60
1725893941.182;200;12.92;37228.60
1725893941.232;200;10.74;34680.67
1725893941.282;200;10.74;34680.67
1725893941.332;200;10.74;34680.67
1725893941.382;200;12.74;37019.93
1725893941.432;200;9.88;33684.33
1725893941.482;200;9.88;33684.33
1725893941.532;200;9.88;33684.33
1725893941.583;200;11.09;35088.67
1725893941.633;200;11.03;35022.93
1725893941.683;200;11.03;35022.93
1725893941.733;200;11.03;35022.93
1725893941.783;200;10.86;34821.46
1725893941.833;200;12.81;37095.60
1725893941.883;200;12.81;37095.60
1725893941.934;200;12.81;37095.60
1725893941.984;200;10.83;34793.54
1725893942.033;200;12.89;37190.54
1725893942.084;200;12.89;37190.54
1725893942.135;200;10.07;33905.60
1725893942.184;200;11.24;35264.67
1725893942.234;200;11.24;35264.67
1725893942.284;200;10.08;33910.93
1725893942.335;200;11.52;35595.33
1725893942.385;200;11.52;35595.33
1725893942.434;200;11.52;35595.33
1725893942.485;200;12.93;37246.80
1725893942.535;200;12.93;37246.80
1725893942.585;200;12.93;37246.80
1725893942.635;200;12.89;37197.87
1725893942.685;200;9.95;33764.00
1725893942.735;200;10.08;33907.46
1725893942.785;200;10.08;33907.46
1725893942.835;200;10.48;34377.67
1725893942.885;200;12.95;37264.67
1725893942.935;200;12.43;36661.07
1725893942.985;200;12.43;36661.07
1725893943.036;200;12.66;36930.20
1725893943.086;200;11.39;35446.46
1725893943.136;200;11.39;35446.46
1725893943.187;200;11.39;35446.46
1725893953.846;200;9.95;33760.33
1725893953.896;200;9.95;33760.33
1725893953.946;200;9.95;33760.33
1725893953.996;200;10.86;34828.73
1725893954.046;200;10.86;34828.73
1725893954.097;200;11.63;35725.00
1725893954.147;200;10.86;34828.93
1725893954.197;200;10.86;34828.93
1725893954.247;200;10.86;34828.93
1725893954.297;200;9.86;33660.93
1725893954.347;200;13.00;37323.00
1725893954.398;200;13.00;37323.00
1725893954.448;200;13.00;37323.00
1725893954.498;200;10.04;33871.13
1725893954.549;200;10.04;33871.13
1725893954.598;200;10.04;33871.13
1725893954.649;200;12.22;36410.40
1725893954.698;200;12.22;36410.40
1725893954.748;200;12.22;36410.40
1725893954.798;200;10.98;34965.33
1725893954.848;200;12.96;37272.80
1725893954.898;200;12.96;37272.80
1725893954.948;200;12.96;37272.80
1725893954.998;200;12.97;37284.73
1725893955.048;200;12.85;37142.80
1725893955.098;200;12.85;37142.80
1725893955.148;200;11.61;35700.93
1725893955.198;200;10.49;34389.60
1725893955.249;200;10.49;34389.60
1725893955.298;200;10.49;34389.60
1725893955.348;200;12.80;37094.93
1725893955.398;200;10.83;34790.87
1725893955.449;200;10.83;34790.87
1725893955.498;200;10.83;34790.87
1725893955.548;200;11.88;36019.67
1725893955.599;200;11.30;35334.27
1725893955.648;200;11.30;35334.27
1725893955.699;200;11.30;35334.27
1725893955.750;200;12.77;37051.07
1725893955.800;200;11.66;35759.13
1725893955.850;200;11.66;35759.13
1725893955.900;200;11.66;35759.13
1725893955.950;200;10.71;34654.00
1725893956.000;200;10.86;34823.73
1725893956.049;200;10.86;34823.73
1725893956.100;200;12.90;37200.93
1725893956.150;200;12.90;37207.60
1725893956.200;200;12.90;37207.60
1725893956.249;200;12.90;37207.60
1725893956.299;200;12.53;36775.27
1725893956.351;200;12.85;37152.93
1725893956.401;200;12.85;37152.93
1725893956.451;200;12.85;37152.93
1725893956.501;200;12.40;36619.20
1725893956.552;200;11.25;35283.73
1725893956.601;200;11.25;35283.73
1725893956.651;200;11.25;35283.73
1725893956.702;200;11.59;35679.07
1725893956.751;200;11.59;35679.07
1725893956.802;200;11.59;35679.07
1725893956.851;200;10.40;34284.93
1725893956.902;200;12.14;36318.33
1725893956.952;200;12.14;36318.33
1725893957.002;200;12.14;36318.33
1725893957.052;200;12.94;37250.80
1725893957.102;200;12.94;37250.80
1725893957.152;200;12.94;37250.80
1725893957.202;200;12.78;37068.40
1725893957.252;200;12.78;37068.40
1725893957.302;200;12.78;37068.40
1725893957.352;200;11.55;35630.54
1725893957.402;200;11.14;35149.13
1725893957.452;200;11.14;35149.13
1725893957.503;200;11.14;35149.13
1725893957.552;200;9.97;33781.33
1725893957.603;200;11.94;36082.93
1725893957.653;200;11.94;36082.93
1725893957.703;200;10.76;34703.60
1725893957.753;200;9.98;33790.40
1725893957.803;200;10.43;34316.20
1725893957.853;200;10.43;34316.20
1725893957.902;200;12.89;37193.33
1725893957.954;200;11.33;35376.07
1725893958.005;200;11.33;35376.07
1725893958.054;200;11.33;35376.07
1725893958.105;200;12.22;36416.07
1725893958.155;200;12.92;37226.27
1725893958.206;200;12.92;37226.27
1725893958.255;200;11.71;35817.46
1725894206.440;41;10.00;34221.93
1725894206.488;43;10.00;33982.73
1725894206.538;43;10.00;33982.73
1725894206.588;15;10.00;37003.20
1725894206.638;27;10.00;35757.80
1725894206.688;27;10.00;35757.80
1725894206.738;31;10.00;35349.80
1725894206.789;42;10.00;34156.54
1725894206.838;42;10.00;34156.54
1725894206.889;42;10.00;34156.54
1725894206.939;33;10.00;35066.27
1725894206.989;25;10.00;35968.54
1725894207.039;25;10.00;35968.54
1725894207.090;31;10.00;35349.80
1725894207.140;42;10.00;34167.80
1725894207.189;42;10.00;34167.80
1725894207.240;42;10.00;34167.80
1725894207.289;30;10.00;35467.93
1725894207.340;41;10.00;34200.73
1725894207.390;41;10.00;34200.73
1725894207.440;41;10.00;34200.73
1725894207.491;42;10.00;34146.00
1725894207.541;22;10.00;36289.93
1725894207.591;22;10.00;36289.93
1725894207.641;22;10.00;36289.93
1725894207.691;18;10.00;36754.33
1725894207.741;28;10.00;35664.33
1725894207.791;28;10.00;35664.33
1725894207.841;28;10.00;35664.33
1725894207.891;40;10.00;34362.33
1725894207.943;38;10.00;34584.27
1725894207.992;38;10.00;34584.27
1725894208.042;38;10.00;34584.27
1725894208.093;19;10.00;36590.00
1725894208.142;23;10.00;36179.87
1725894208.192;23;10.00;36179.87
1725894208.243;41;10.00;34243.20
1725894208.293;33;10.00;35061.54
1725894208.343;33;10.00;35061.54
1725894208.393;33;10.00;35061.54
1725894208.443;32;10.00;35171.07
1725894208.493;32;10.00;35171.07
1725894208.543;32;10.00;35171.07
1725894208.593;38;10.00;34573.93
1725894208.643;31;10.00;35275.93
1725894208.693;31;10.00;35275.93
1725894208.743;35;10.00;34835.27
1725894208.793;30;10.00;35376.33
1725894208.843;30;10.00;35376.33
1725894208.893;30;10.00;35376.33
1725894208.943;43;10.00;34013.73
1725894208.994;30;10.00;35446.27
1725894209.044;30;10.00;35446.27
1725894209.094;30;10.00;35446.27
1725894209.143;18;10.00;36771.73
1725894209.194;46;10.00;33714.67
1725894209.243;46;10.00;33714.67
1725894209.294;46;10.00;33714.67
1725894209.343;47;10.00;33586.67
1725894209.394;47;10.00;33586.67
1725894209.444;47;10.00;33586.67
1725894209.495;43;10.00;34059.33
1725894209.544;22;10.00;36332.60
1725894209.595;22;10.00;36332.60
1725894209.645;22;10.00;36332.60
1725894209.696;31;10.00;35315.13
1725894209.745;38;10.00;34565.60
1725894209.795;38;10.00;34565.60
1725894209.847;38;10.00;34565.60
1725894209.897;36;10.00;34752.27
1725894209.947;34;10.00;35040.67
1725894209.997;34;10.00;35040.67
1725894210.047;48;10.00;33469.73
1725894210.097;26;10.00;35822.67
1725894210.147;24;10.00;36041.40
1725894210.197;24;10.00;36041.40
1725894210.247;24;10.00;36041.40
1725894210.297;35;10.00;34865.73
1725894210.347;42;10.00;34177.60
1725894210.397;42;10.00;34177.60
1725894210.447;42;10.00;34177.60
1725894210.497;29;10.00;35506.67
1725894210.548;23;10.00;36188.00
1725894210.599;23;10.00;36188.00
1725894210.649;23;10.00;36188.00
1725894210.699;45;10.00;33754.40
1725894210.749;36;10.00;34813.07
1725894210.799;36;10.00;34813.07
1725894210.848;36;10.00;34813.07
1725894210.899;37;10.00;34646.46
1725894210.949;33;10.00;35059.93
1725894210.999;33;10.00;35059.93
1725894211.049;29;10.00;35505.33
1725894211.100;37;10.00;34628.33
1725894222.663;45;10.00;33819.20
1725894222.713;45;10.00;33819.20
1725894222.764;45;10.00;33819.20
1725894222.814;48;10.00;33460.13
1725894222.865;45;10.00;33844.67
1725894222.915;45;10.00;33844.67
1725894222.965;38;10.00;34571.73
1725894223.015;32;10.00;35180.73
1725894223.065;32;10.00;35180.73
1725894223.115;32;10.00;35180.73
1725894223.165;28;10.00;35682.67
1725894223.216;31;10.00;35354.87
1725894223.266;31;10.00;35354.87
1725894223.316;31;10.00;35354.87
1725894223.366;28;10.00;35615.20
1725894223.416;29;10.00;35574.54
1725894223.465;29;10.00;35574.54
1725894223.515;29;10.00;35574.54
1725894223.567;41;10.00;34220.60
1725894223.621;48;10.00;33498.27
1725894223.667;26;10.00;35867.46
1725894223.717;26;10.00;35867.46
1725894223.767;26;10.00;35867.46
1725894223.817;17;10.00;36854.87
1725894223.867;35;10.00;34917.54
1725894223.917;35;10.00;34917.54
1725894223.968;35;10.00;34917.54
1725894224.017;38;10.00;34611.13
1725894224.068;29;10.00;35489.87
1725894224.117;29;10.00;35489.87
1725894224.167;18;10.00;36772.73
1725894224.218;34;10.00;34947.13
1725894224.268;34;10.00;34947.13
1725894224.317;34;10.00;34947.13
1725894224.367;44;10.00;33947.87
1725894224.418;33;10.00;35109.20
1725894224.468;33;10.00;35109.20
1725894224.518;33;10.00;35109.20
1725894224.568;23;10.00;36152.73
1725894224.617;27;10.00;35763.87
1725894224.667;27;10.00;35763.87
1725894224.718;27;10.00;35763.87
1725894224.768;34;10.00;35008.46
1725894224.817;34;10.00;35008.46
1725894224.868;34;10.00;35008.46
1725894224.918;34;10.00;35008.46
1725894224.968;41;10.00;34184.20
1725894225.018;41;10.00;34184.20
1725894225.068;41;10.00;34184.20
1725894225.117;24;10.00;36037.27
1725894225.168;20;10.00;36473.54
1725894225.218;20;10.00;36473.54
1725894225.267;44;10.00;33853.60
1725894225.317;40;10.00;34389.87
1725894225.367;40;10.00;34389.87
1725894225.418;40;10.00;34389.87
1725894225.468;32;10.00;35255.40
1725894225.519;25;10.00;35945.20
1725894225.569;25;10.00;35945.20
1725894225.618;25;10.00;35945.20
1725894225.669;29;10.00;35535.73
1725894225.718;27;10.00;35741.87
1725894225.768;40;10.00;34305.33
1725894225.819;40;10.00;34305.33
1725894225.868;40;10.00;34305.33
1725894225.919;36;10.00;34802.67
1725894225.969;20;10.00;36550.60
1725894226.019;20;10.00;36550.60
1725894226.069;20;10.00;36550.60
1725894226.119;36;10.00;34790.07
1725894226.170;33;10.00;35127.40
1725894226.219;33;10.00;35127.40
1725894226.269;31;10.00;35346.67
1725894226.319;30;10.00;35446.40
1725894226.369;30;10.00;35446.40
1725894226.419;30;10.00;35446.40
1725894226.469;34;10.00;34962.80
1725894226.520;33;10.00;35115.07
1725894226.569;33;10.00;35115.07
1725894226.619;33;10.00;35115.07
1725894226.669;27;10.00;35705.67
1725894226.720;27;10.00;35705.67
1725894226.770;27;10.00;35705.67
1725894226.820;45;10.00;33844.13
1725894226.869;29;10.00;35569.87
1725894226.920;29;10.00;35569.87
1725894226.969;29;10.00;35569.87
1725894227.020;23;10.00;36195.33
1725894227.069;43;10.00;34029.46
1725894227.119;43;10.00;34029.46
1725894227.170;37;10.00;34713.60
1725894227.221;28;10.00;35686.46
1725894227.270;30;10.00;35469.00
1725894227.321;30;10.00;35469.00
1725894227.371;37;10.00;34634.40
1725894227.421;32;10.00;35154.40
1725894227.472;32;10.00;35154.40
1725894227.522;32;10.00;35154.40
1725894227.571;23;10.00;36224.13
1725894227.622;25;10.00;35937.00
1725894239.298;47;10.00;33602.67
1725894239.348;42;10.00;34157.33
1725894239.498;16;10.00;36945.80
1725894239.548;43;10.00;33969.46
1725894239.599;43;10.00;33969.46
1725894239.649;43;10.00;33969.46
1725894239.698;33;10.00;35085.60
1725894239.749;32;10.00;35183.60
1725894239.799;32;10.00;35183.60
1725894239.849;32;10.00;35183.60
1725894239.899;26;10.00;35894.20
1725894239.949;26;10.00;35894.20
1725894240.000;26;10.00;35894.20
1725894240.049;26;10.00;35894.20
1725894240.100;33;10.00;35131.73
1725894240.150;33;10.00;35131.73
1725894240.201;33;10.00;35131.73
1725894240.250;35;10.00;34907.27
1725894240.301;43;10.00;33974.67
1725894240.352;43;10.00;33974.67
1725894240.402;43;10.00;33974.67
1725894240.452;36;10.00;34803.87
1725894240.501;23;10.00;36197.60
1725894240.553;23;10.00;36197.60
1725894240.602;27;10.00;35795.54
1725894240.654;17;10.00;36790.80
1725894240.704;27;10.00;35723.46
1725894240.753;27;10.00;35723.46
1725894240.804;27;10.00;35723.46
1725894240.854;42;10.00;34095.54
1725894240.904;33;10.00;35058.60
1725894240.954;33;10.00;35058.60
1725894241.005;33;10.00;35058.60
1725894241.055;34;10.00;34992.00
1725894241.104;43;10.00;34002.00
1725894241.154;43;10.00;34002.00
1725894241.205;42;10.00;34087.60
1725894241.254;36;10.00;34734.80
1725894241.305;36;10.00;34734.80
1725894241.355;36;10.00;34734.80
1725894241.406;22;10.00;36318.00
1725894241.455;33;10.00;35108.27
1725894241.505;33;10.00;35108.27
1725894241.555;33;10.00;35108.27
1725894241.605;40;10.00;34304.27
1725894241.656;40;10.00;34380.67
1725894241.707;33;10.00;35049.40
1725894241.757;33;10.00;35049.40
1725894241.807;33;10.00;35145.60
1725894241.857;20;10.00;36560.67
1725894241.907;41;10.00;34286.07
1725894241.957;41;10.00;34286.07
1725894242.007;41;10.00;34286.07
1725894242.057;41;10.00;34194.13
1725894242.107;16;10.00;36953.67
1725894242.158;16;10.00;36953.67
1725894242.208;18;10.00;36705.46
1725894242.258;32;10.00;35171.46
1725894242.307;32;10.00;35171.46
1725894242.357;32;10.00;35171.46
1725894242.407;40;10.00;34319.27
1725894242.457;23;10.00;36179.67
1725894242.507;23;10.00;36179.67
1725894242.558;23;10.00;36179.67
1725894242.608;27;10.00;35775.54
1725894242.658;45;10.00;33784.80
1725894242.708;45;10.00;33784.80
1725894242.757;45;10.00;33784.80
1725894242.807;26;10.00;35848.54
1725894242.857;30;10.00;35377.67
1725894242.907;30;10.00;35377.67
1725894242.958;34;10.00;35008.20
1725894243.008;19;10.00;36654.80
1725894243.057;19;10.00;36654.80
1725894243.108;19;10.00;36654.80
1725894243.157;36;10.00;34795.67
1725894243.208;36;10.00;34795.67
1725894243.257;36;10.00;34795.67
1725894243.308;32;10.00;35167.07
1725894243.359;31;10.00;35337.87
1725894243.409;31;10.00;35337.87
1725894243.458;31;10.00;35337.87
1725894243.508;25;10.00;35964.00
1725894243.559;29;10.00;35581.00
1725894243.609;36;10.00;34740.13
1725894243.659;36;10.00;34740.13
1725894243.709;36;10.00;34740.13
1725894243.759;22;10.00;36344.00
1725894243.808;28;10.00;35631.73
1725894243.859;28;10.00;35631.73
1725894243.909;21;10.00;36376.46
1725894243.959;29;10.00;35528.67
1725894244.009;29;10.00;35528.67
1725894244.059;29;10.00;35528.67
1725894244.109;44;10.00;33896.27
1725894341.506;46;20.00;33693.20
1725894341.556;47;20.00;33556.80
1725894341.606;47;20.00;33556.80
1725894341.655;47;20.00;33556.80
1725894341.707;18;20.00;36703.40
1725894341.757;18;20.00;36703.40
1725894341.807;18;20.00;36703.40
1725894341.857;34;20.00;34973.93
1725894341.908;34;20.00;34963.87
1725894341.958;34;20.00;34963.87
1725894342.008;33;20.00;35147.33
1725894342.057;19;20.00;36621.13
1725894342.108;19;20.00;36621.13
1725894342.158;19;20.00;36621.13
1725894342.208;43;20.00;34001.13
1725894342.258;44;20.00;33887.33
1725894342.308;46;20.00;33645.33
1725894342.358;46;20.00;33645.33
1725894342.408;43;20.00;34054.60
1725894342.459;27;20.00;35754.46
1725894342.508;18;20.00;36769.93
1725894342.558;18;20.00;36769.93
1725894342.608;43;20.00;34038.27
1725894342.658;44;20.00;33959.33
1725894342.708;47;20.00;33633.46
1725894342.758;47;20.00;33633.46
1725894342.809;18;20.00;36695.07
1725894342.858;46;20.00;33692.67
1725894342.908;46;20.00;33692.67
1725894342.958;46;20.00;33692.67
1725894343.008;44;20.00;33907.13
1725894343.059;44;20.00;33907.13
1725894343.109;44;20.00;33907.13
1725894343.159;17;20.00;36790.33
1725894343.209;28;20.00;35680.46
1725894343.259;28;20.00;35680.46
1725894343.309;38;20.00;34575.40
1725894343.360;45;20.00;33778.73
1725894343.410;39;20.00;34419.33
1725894343.460;39;20.00;34419.33
1725894343.510;47;20.00;33574.60
1725894343.560;27;20.00;35746.40
1725894343.611;16;20.00;36962.20
1725894343.661;16;20.00;36962.20
1725894343.711;41;20.00;34213.60
1725894343.761;40;20.00;34383.60
1725894343.812;37;20.00;34694.40
1725894343.862;37;20.00;34694.40
1725894343.912;39;20.00;34419.27
1725894343.963;33;20.00;35079.54
1725894344.014;33;20.00;35079.54
1725894344.064;33;20.00;35079.54
1725894344.115;45;20.00;33794.13
1725894344.165;36;20.00;34760.27
1725894344.217;35;20.00;34919.07
1725894344.266;35;20.00;34919.07
1725894344.324;35;20.00;34919.07
1725894344.371;16;20.00;36994.40
1725894344.421;43;20.00;34028.13
1725894344.471;43;20.00;34028.13
1725894344.522;43;20.00;34028.13
1725894344.572;46;20.00;33650.40
1725894344.622;16;20.00;36916.54
1725894344.672;16;20.00;36916.54
1725894344.722;18;20.00;36692.40
1725894344.772;36;20.00;34797.60
1725894344.822;36;20.00;34797.60
1725894344.873;36;20.00;34797.60
1725894344.922;16;20.00;36947.54
1725894344.972;16;20.00;36981.13
1725894345.022;16;20.00;36981.13
1725894345.073;16;20.00;36981.13
1725894345.123;24;20.00;36049.13
1725894345.173;24;20.00;36049.13
1725894345.224;24;20.00;36049.13
1725894345.273;44;20.00;33856.93
1725894345.325;35;20.00;34842.13
1725894345.374;35;20.00;34842.13
1725894345.425;38;20.00;34531.13
1725894345.475;33;20.00;35153.00
1725894345.524;33;20.00;35153.00
1725894345.575;33;20.00;35153.00
1725894345.626;41;20.00;34203.27
1725894345.676;19;20.00;36644.54
1725894345.726;19;20.00;36644.54
1725894345.775;19;20.00;36644.54
1725894345.827;43;20.00;33982.54
1725894345.877;22;20.00;36262.40
1725894345.927;22;20.00;36262.40
1725894345.977;22;20.00;36262.40
1725894346.027;47;20.00;33599.07
1725894346.077;19;20.00;36605.73
1725894346.127;19;20.00;36605.73
1725894346.177;19;20.00;36605.73
1725894346.227;15;20.00;37018.80
1725894346.278;27;20.00;35799.80
1725894357.928;44;20.00;33920.46
1725894357.978;44;20.00;33902.93
1725894358.028;44;20.00;33902.93
1725894358.078;44;20.00;33902.93
1725894358.129;29;20.00;35558.40
1725894358.178;22;20.00;36325.07
1725894358.228;22;20.00;36325.07
1725894358.279;37;20.00;34615.87
1725894358.329;42;20.00;34077.87
1725894358.378;42;20.00;34077.87
1725894358.428;42;20.00;34077.87
1725894358.479;47;20.00;33580.13
1725894358.528;28;20.00;35685.20
1725894358.579;28;20.00;35685.20
1725894358.629;28;20.00;35685.20
1725894358.678;41;20.00;34216.40
1725894358.728;30;20.00;35383.33
1725894358.779;30;20.00;35383.33
1725894358.829;30;20.00;35383.33
1725894358.879;29;20.00;35571.93
1725894358.929;41;20.00;34222.13
1725894358.980;41;20.00;34222.13
1725894359.030;41;20.00;34222.13
1725894359.080;40;20.00;34349.20
1725894359.130;16;20.00;36909.27
1725894359.180;16;20.00;36909.27
1725894359.230;16;20.00;36909.27
1725894359.280;25;20.00;35972.40
1725894359.330;46;20.00;33686.07
1725894359.380;46;20.00;33686.07
1725894359.430;46;20.00;33686.07
1725894359.480;28;20.00;35659.93
1725894359.530;31;20.00;35276.20
1725894359.580;31;20.00;35276.20
1725894359.631;31;20.00;35276.20
1725894359.681;44;20.00;33905.60
1725894359.730;35;20.00;34902.93
1725894359.780;35;20.00;34902.93
1725894359.831;35;20.00;34902.93
1725894359.881;39;20.00;34459.07
1725894359.931;19;20.00;36572.27
1725894359.981;19;20.00;36572.27
1725894360.031;19;20.00;36572.27
1725894360.080;29;20.00;35582.00
1725894360.130;46;20.00;33687.73
1725894360.181;46;20.00;33687.73
1725894360.232;46;20.00;33687.73
1725894360.282;38;20.00;34586.87
1725894360.332;24;20.00;36047.20
1725894360.382;24;20.00;36047.20
1725894360.431;24;20.00;36047.20
1725894360.481;34;20.00;34973.67
1725894360.533;34;20.00;34939.27
1725894360.583;34;20.00;34939.27
1725894360.632;34;20.00;34939.27
1725894360.682;20;20.00;36499.20
1725894360.734;16;20.00;36996.93
1725894360.783;16;20.00;36996.93
1725894360.835;16;20.00;36996.93
1725894360.935;34;20.00;35035.07
1725894360.984;34;20.00;35035.07
1725894361.085;38;20.00;34566.13
1725894361.137;38;20.00;34566.13
1725894361.186;38;20.00;34566.13
1725894361.236;37;20.00;34624.93
1725894361.286;37;20.00;34624.93
1725894361.337;37;20.00;34624.93
1725894361.387;20;20.00;36480.00
1725894361.437;17;20.00;36818.00
1725894361.486;17;20.00;36818.00
1725894361.536;17;20.00;36818.00
1725894361.587;16;20.00;36975.87
1725894361.787;38;20.00;34528.80
1725894361.837;43;20.00;34057.60
1725894361.888;43;20.00;34057.60
1725894361.937;43;20.00;34057.60
1725894361.988;41;20.00;34194.00
1725894362.039;17;20.00;36799.54
1725894362.088;17;20.00;36799.54
1725894362.138;19;20.00;36569.46
1725894362.189;24;20.00;36127.40
1725894362.238;32;20.00;35190.27
1725894362.289;32;20.00;35190.27
1725894362.339;27;20.00;35706.60
1725894362.388;42;20.00;34128.73
1725894362.438;42;20.00;34128.73
1725894362.488;42;20.00;34128.73
1725894362.539;16;20.00;36912.00
1725894362.588;34;20.00;34992.87
1725894362.638;34;20.00;34992.87
1725894362.689;34;20.00;34992.87
1725894362.738;37;20.00;34655.93
1725894362.789;44;20.00;33945.73
1725894362.839;32;20.00;35253.33
1725894362.892;32;20.00;35253.33
1725894362.939;32;20.00;35253.33
1725894362.989;16;20.00;36987.67
1725894363.039;21;20.00;36365.27
1725894375.108;48;20.00;33498.93
1725894375.158;48;20.00;33498.93
1725894375.208;48;20.00;33498.93
1725894375.258;43;20.00;34014.93
1725894375.308;43;20.00;34014.93
1725894375.359;43;20.00;34014.93
1725894375.408;46;20.00;33682.46
1725894375.458;24;20.00;36128.60
1725894375.508;24;20.00;36128.60
1725894375.558;24;20.00;36128.60
1725894375.608;19;20.00;36606.80
1725894375.808;41;20.00;34268.67
1725894375.858;48;20.00;33459.87
1725894375.908;48;20.00;33459.87
1725894375.960;48;20.00;33459.87
1725894376.009;32;20.00;35240.46
1725894376.059;35;20.00;34845.40
1725894376.110;35;20.00;34845.40
1725894376.161;35;20.00;34845.40
1725894376.210;44;20.00;33920.00
1725894376.260;44;20.00;33884.93
1725894376.310;44;20.00;33884.93
1725894376.361;44;20.00;33884.93
1725894376.411;47;20.00;33581.07
1725894376.461;38;20.00;34568.93
1725894376.511;38;20.00;34568.93
1725894376.561;38;20.00;34568.93
1725894376.611;19;20.00;36657.20
1725894376.812;31;20.00;35341.20
1725894376.861;43;20.00;34054.46
1725894376.911;43;20.00;34054.46
1725894376.962;47;20.00;33559.46
1725894377.013;17;20.00;36803.67
1725894377.063;17;20.00;36803.67
1725894377.113;17;20.00;36803.67
1725894377.164;24;20.00;36043.07
1725894377.214;18;20.00;36725.80
1725894377.264;18;20.00;36725.80
1725894377.315;18;20.00;36725.80
1725894377.365;35;20.00;34848.67
1725894377.415;35;20.00;34848.67
1725894377.465;35;20.00;34848.67
1725894377.565;17;20.00;36845.67
1725894377.615;17;20.00;36845.67
1725894377.664;17;20.00;36845.67
1725894377.714;48;20.00;33508.40
1725894377.765;38;20.00;34598.33
1725894377.815;38;20.00;34598.33
1725894377.865;44;20.00;33876.33
1725894377.915;33;20.00;35090.73
1725894377.965;38;20.00;34516.93
1725894378.016;38;20.00;34516.93
1725894378.065;30;20.00;35439.27
1725894378.116;47;20.00;33531.33
1725894378.165;47;20.00;33531.33
1725894378.216;47;20.00;33531.33
1725894378.265;19;20.00;36633.40
1725894378.316;13;20.00;37271.87
1725894378.365;13;20.00;37271.87
1725894378.416;13;20.00;37271.87
1725894378.465;25;20.00;35950.00
1725894378.516;47;20.00;33531.46
1725894378.565;47;20.00;33531.46
1725894378.616;47;20.00;33531.46
1725894378.666;46;20.00;33656.40
1725894378.717;48;20.00;33515.60
1725894378.767;16;20.00;36934.67
1725894378.817;16;20.00;36934.67
1725894378.868;16;20.00;36934.67
1725894378.917;44;20.00;33890.67
1725894378.968;29;20.00;35567.27
1725894379.017;29;20.00;35567.27
1725894379.067;29;20.00;35567.27
1725894379.117;23;20.00;36156.00
1725894379.167;18;20.00;36722.93
1725894379.217;18;20.00;36722.93
1725894379.267;16;20.00;36926.20
1725894379.317;23;20.00;36197.67
1725894379.367;36;20.00;34788.67
1725894379.417;36;20.00;34788.67
1725894379.467;44;20.00;33886.80
1725894379.517;38;20.00;34600.46
1725894379.567;38;20.00;34600.46
1725894379.617;38;20.00;34600.46
1725894379.667;36;20.00;34775.80
1725894784.541;50;10.45;34340.67
1725894784.592;50;10.45;34340.67
1725894784.642;50;10.45;34340.67
1725894784.693;50;10.54;34445.87
1725894784.743;50;12.70;36967.73
1725894784.793;50;12.70;36967.73
1725894784.842;50;12.70;36967.73
1725894784.943;50;11.14;35150.07
1725894784.993;50;11.14;35150.07
1725894785.043;50;11.14;35150.07
1725894785.093;50;11.02;35006.60
1725894785.143;50;12.34;36555.80
1725894785.193;50;12.34;36555.80
1725894785.243;50;12.34;36555.80
1725894785.294;50;10.81;34762.73
1725894785.344;50;12.06;36230.13
1725894785.395;50;12.06;36230.13
1725894785.445;50;12.06;36230.13
1725894785.495;50;12.33;36540.33
1725894785.545;50;11.26;35288.80
1725894785.595;50;11.26;35288.80
1725894785.645;50;11.26;35288.80
1725894785.695;50;9.95;33765.46
1725894785.745;50;10.79;34743.54
1725894785.795;50;10.79;34743.54
1725894785.845;50;10.79;34743.54
1725894785.895;50;12.02;36183.80
1725894785.945;50;11.39;35447.00
1725894785.995;50;11.39;35447.00
1725894786.045;50;12.71;36982.67
1725894786.095;50;12.23;36426.80
1725894786.145;50;12.23;36426.80
1725894786.195;50;12.23;36426.80
1725894786.245;50;11.06;35056.67
1725894786.296;50;12.16;36345.67
1725894786.346;50;12.16;36345.67
1725894786.397;50;12.45;36682.40
1725894786.447;50;11.07;35071.73
1725894786.497;50;11.07;35071.73
1725894786.547;50;11.07;35071.73
1725894786.597;50;11.29;35323.67
1725894786.647;50;10.03;33856.73
1725894786.697;50;10.03;33856.73
1725894786.747;50;10.03;33856.73
1725894786.797;50;10.03;33856.73
1725894786.847;50;11.63;35721.46
1725894786.897;50;11.19;35204.80
1725894786.947;50;11.19;35204.80
1725894786.997;50;11.19;35204.80
1725894787.047;50;12.50;36744.27
1725894787.097;50;12.50;36744.27
1725894787.147;50;12.50;36744.27
1725894787.197;50;10.93;34909.40
1725894787.247;50;11.85;35985.67
1725894787.298;50;11.85;35985.67
1725894787.348;50;11.89;36022.40
1725894787.398;50;12.10;36269.40
1725894787.448;50;12.10;36269.40
1725894787.498;50;12.10;36269.40
1725894787.548;50;12.22;36412.60
1725894787.598;50;11.72;35828.13
1725894787.648;50;11.72;35828.13
1725894787.698;50;11.72;35828.13
1725894787.748;50;10.81;34760.27
1725894787.798;50;10.81;34760.27
1725894787.848;50;10.81;34760.27
1725894787.898;50;10.81;34760.27
1725894787.948;50;10.23;34092.67
1725894787.999;50;10.23;34092.67
1725894788.048;50;10.23;34092.67
1725894788.099;50;9.87;33665.60
1725894788.149;50;12.71;36985.60
1725894788.200;50;12.71;36985.60
1725894788.249;50;12.71;36985.60
1725894788.300;50;11.13;35140.40
1725894788.350;50;12.55;36800.00
1725894788.400;50;12.55;36800.00
1725894788.449;50;12.55;36800.00
1725894788.500;50;10.51;34416.73
1725894788.549;50;12.68;36953.67
1725894788.600;50;12.68;36953.67
1725894788.650;50;12.68;36953.67
1725894788.699;50;9.73;33501.60
1725894788.751;50;12.53;36771.27
1725894788.801;50;12.53;36771.27
1725894788.851;50;12.53;36771.27
1725894788.902;50;10.48;34384.13
1725894788.951;50;12.15;36326.93
1725894789.001;50;12.15;36326.93
1725894789.052;50;12.15;36326.93
1725894789.102;50;12.20;36383.60
1725894789.152;50;10.79;34739.46
1725894789.204;50;10.79;34739.46
1725894789.252;50;10.79;34739.46
1725894800.785;50;9.90;33707.87
1725894800.835;50;9.90;33707.87
1725894800.885;50;9.90;33707.87
1725894800.936;50;12.28;36485.93
1725894800.986;50;12.80;37084.87
1725894801.036;50;12.80;37084.87
1725894801.086;50;10.66;34594.54
1725894801.136;50;9.69;33453.33
1725894801.187;50;9.69;33453.33
1725894801.237;50;9.69;33453.33
1725894801.287;50;10.43;34318.40
1725894801.337;50;12.12;36300.93
1725894801.387;50;12.12;36300.93
1725894801.437;50;12.12;36300.93
1725894801.487;50;11.73;35838.40
1725894801.537;50;10.83;34786.00
1725894801.587;50;10.83;34786.00
1725894801.638;50;10.83;34786.00
1725894801.688;50;10.75;34696.60
1725894801.737;50;10.75;34696.60
1725894801.788;50;10.75;34696.60
1725894801.838;50;10.75;34696.60
1725894801.888;50;12.28;36486.93
1725894801.938;50;11.64;35731.80
1725894801.987;50;11.64;35731.80
1725894802.037;50;11.64;35731.80
1725894802.088;50;12.38;36604.20
1725894802.139;50;12.32;36530.20
1725894802.189;50;12.32;36530.20
1725894802.239;50;12.32;36530.20
1725894802.289;50;12.64;36907.13
1725894802.338;50;12.04;36202.93
1725894802.388;50;11.50;35565.27
1725894802.439;50;11.50;35565.27
1725894802.489;50;10.96;34941.46
1725894802.539;50;11.47;35530.46
1725894802.689;50;12.70;36971.00
1725894802.739;50;9.87;33666.27
1725894802.790;50;9.82;33611.33
1725894802.840;50;9.82;33611.33
1725894802.890;50;12.15;36328.07
1725894802.941;50;12.33;36544.13
1725894802.990;50;12.33;36544.13
1725894803.041;50;12.33;36544.13
1725894803.091;50;10.10;33941.20
1725894803.141;50;10.10;33941.20
1725894803.191;50;10.10;33941.20
1725894803.241;50;10.10;33941.20
1725894803.294;50;12.44;36669.80
1725894803.342;50;12.44;36669.80
1725894803.392;50;12.44;36669.80
1725894803.442;50;12.44;36669.80
1725894803.491;50;11.05;35046.27
1725894803.542;50;11.05;35046.27
1725894803.591;50;11.05;35046.27
1725894803.642;50;11.05;35046.27
1725894803.692;50;12.48;36717.60
1725894803.741;50;12.48;36717.60
1725894803.792;50;12.48;36717.60
1725894803.841;50;12.71;36988.73
1725894803.893;50;11.95;36099.00
1725894803.943;50;11.95;36099.00
1725894803.993;50;11.95;36099.00
1725894804.043;50;9.75;33532.67
1725894804.093;50;9.75;33532.67
1725894804.143;50;9.75;33532.67
1725894804.193;50;10.79;34739.33
1725894804.243;50;12.68;36948.07
1725894804.293;50;10.44;34330.80
1725894804.343;50;10.44;34330.80
1725894804.393;50;10.56;34473.27
1725894804.444;50;12.36;36579.73
1725894804.493;50;10.95;34930.46
1725894804.543;50;10.95;34930.46
1725894804.594;50;10.95;34930.46
1725894804.643;50;12.66;36928.54
1725894804.694;50;11.06;35054.60
1725894804.744;50;11.06;35054.60
1725894804.794;50;11.99;36145.20
1725894804.843;50;11.41;35461.93
1725894804.894;50;11.41;35461.93
1725894804.943;50;11.41;35461.93
1725894804.993;50;12.38;36603.00
1725894805.044;50;11.81;35933.07
1725894805.094;50;11.81;35933.07
1725894805.144;50;11.81;35933.07
1725894805.194;50;11.99;36139.20
1725894805.244;50;11.99;36139.20
1725894805.294;50;11.99;36139.20
1725894805.344;50;11.99;36139.20
1725894805.396;50;11.41;35468.54
1725894805.445;50;11.51;35583.73
1725894805.495;50;11.51;35583.73
1725894805.545;50;11.51;35583.73
1725894805.597;50;10.13;33973.33
1725894805.647;50;11.33;35370.46
1725894805.697;50;12.19;36377.07
1725894805.747;50;12.19;36377.07
1725894805.797;50;10.44;34327.33
1725894805.847;50;11.82;35941.13
1725894817.085;50;10.75;34690.60
1725894817.135;50;11.44;35500.20
1725894817.185;50;11.08;35077.73
1725894817.235;50;11.08;35077.73
1725894817.285;50;12.63;36885.60
1725894817.336;50;11.00;34982.87
1725894817.386;50;10.75;34696.46
1725894817.435;50;10.75;34696.46
1725894817.487;50;11.40;35454.80
1725894817.537;50;11.32;35362.73
1725894817.587;50;10.69;34624.54
1725894817.638;50;10.69;34624.54
1725894817.687;50;12.26;36458.33
1725894817.738;50;12.26;36453.67
1725894817.789;50;11.67;35766.07
1725894817.839;50;11.67;35766.07
1725894817.888;50;10.45;34350.40
1725894817.939;50;10.50;34408.40
1725894817.989;50;10.50;34408.40
1725894818.038;50;10.50;34408.40
1725894818.089;50;11.26;35286.33
1725894818.138;50;12.15;36324.80
1725894818.189;50;12.15;36324.80
1725894818.239;50;12.15;36324.80
1725894818.289;50;11.45;35517.80
1725894818.339;50;11.33;35369.60
1725894818.389;50;11.33;35369.60
1725894818.440;50;11.33;35369.60
1725894818.490;50;12.43;36662.20
1725894818.540;50;11.57;35652.00
1725894818.590;50;11.57;35652.00
1725894818.641;50;10.20;34050.54
1725894818.691;50;10.71;34645.07
1725894818.741;50;10.71;34645.07
1725894818.791;50;10.71;34645.07
1725894818.841;50;10.85;34816.60
1725894818.891;50;11.50;35567.07
1725894818.941;50;11.50;35567.07
1725894818.991;50;11.50;35567.07
1725894819.041;50;11.32;35363.60
1725894819.091;50;10.80;34757.46
1725894819.141;50;10.80;34757.46
1725894819.192;50;10.80;34757.46
1725894819.242;50;12.07;36233.54
1725894819.292;50;10.40;34290.27
1725894819.342;50;10.40;34290.27
1725894819.391;50;11.02;35014.73
1725894819.441;50;11.06;35059.27
1725894819.493;50;11.50;35569.07
1725894819.543;50;11.50;35569.07
1725894819.594;50;12.26;36456.07
1725894819.643;50;10.83;34787.80
1725894819.694;50;10.83;34787.80
1725894819.743;50;10.83;34787.80
1725894819.794;50;11.35;35399.27
1725894819.844;50;10.72;34661.27
1725894819.893;50;12.21;36401.46
1725894819.944;50;12.21;36401.46
1725894819.995;50;12.21;36401.46
1725894820.045;50;12.12;36297.80
1725894820.095;50;10.58;34497.00
1725894820.145;50;10.58;34497.00
1725894820.196;50;10.58;34497.00
1725894820.245;50;12.16;36339.80
1725894820.297;50;10.38;34260.46
1725894820.347;50;10.38;34260.46
1725894820.397;50;10.64;34571.87
1725894820.447;50;10.76;34710.00
1725894820.497;50;12.14;36317.40
1725894820.547;50;12.14;36317.40
1725894820.597;50;10.67;34600.60
1725894820.647;50;11.21;35226.80
1725894820.697;50;11.21;35226.80
1725894820.747;50;11.42;35472.07
1725894820.797;50;11.75;35860.20
1725894820.847;50;11.75;35860.20
1725894820.897;50;11.75;35860.20
1725894820.948;50;11.09;35092.00
1725894820.998;50;11.02;35009.67
1725894821.049;50;11.02;35009.67
1725894821.099;50;12.29;36490.93
1725894821.148;50;12.19;36377.87
1725894821.200;50;12.17;36352.07
1725894821.250;50;12.17;36352.07
1725894821.300;50;10.65;34578.40
1725894821.350;50;10.76;34712.27
1725894821.399;50;10.76;34712.27
1725894821.450;50;10.76;34712.27
1725894821.500;50;12.29;36494.27
1725894821.550;50;11.52;35599.93
1725894821.600;50;12.44;36665.73
1725894821.650;50;12.44;36665.73
1725894821.701;50;11.95;36098.87
1725894821.751;50;11.35;35396.60
1725894821.802;50;9.71;33479.07
1725894821.852;50;9.71;33479.07
1725894821.902;50;9.71;33479.07
1725894821.952;50;11.76;35869.80
1725894822.002;50;12.43;36651.73
1725894822.053;50;12.43;36651.73
1725894822.103;50;12.43;36651.73
1725894822.152;50;12.19;36372.67
1725895097.606;350;10.27;34139.80
1725895097.656;350;10.61;34536.54
1725895097.706;350;10.61;34536.54
1725895097.757;350;10.61;34536.54
1725895097.807;350;10.22;34080.93
1725895097.856;350;10.89;34856.13
1725895097.906;350;12.92;37234.00
1725895097.957;350;12.92;37234.00
1725895098.007;350;12.92;37234.00
1725895098.057;350;10.89;34854.27
1725895098.107;350;12.98;37300.40
1725895098.157;350;12.98;37300.40
1725895098.207;350;12.86;37160.67
1725895098.257;350;12.87;37171.33
1725895098.307;350;10.52;34422.67
1725895098.357;350;10.52;34422.67
1725895098.407;350;11.23;35255.07
1725895098.458;350;12.75;37027.33
1725895098.508;350;12.46;36698.00
1725895098.558;350;12.46;36698.00
1725895098.607;350;12.46;36698.00
1725895098.657;350;10.76;34703.40
1725895098.707;350;11.06;35053.40
1725895098.758;350;11.06;35053.40
1725895098.807;350;11.06;35053.40
1725895098.859;350;12.94;37252.20
1725895098.909;350;11.54;35620.33
1725895098.959;350;11.54;35620.33
1725895099.009;350;12.99;37313.20
1725895099.059;350;12.98;37300.67
1725895099.109;350;10.80;34759.33
1725895099.159;350;10.80;34759.33
1725895099.209;350;12.31;36521.73
1725895099.259;350;12.23;36426.60
1725895099.309;350;12.30;36501.60
1725895099.359;350;12.30;36501.60
1725895099.409;350;10.39;34273.33
1725895099.460;350;12.40;36617.07
1725895099.510;350;11.67;35770.40
1725895099.560;350;11.67;35770.40
1725895099.610;350;10.80;34757.73
1725895099.660;350;11.67;35768.93
1725895099.710;350;11.07;35067.07
1725895099.760;350;11.07;35067.07
1725895099.810;350;12.96;37279.60
1725895099.860;350;12.30;36507.00
1725895099.910;350;12.59;36844.80
1725895099.961;350;12.59;36844.80
1725895100.010;350;11.96;36106.46
1725895100.061;350;12.39;36610.27
1725895100.112;350;11.27;35298.46
1725895100.162;350;11.27;35298.46
1725895100.211;350;11.27;35298.46
1725895100.263;350;10.38;34263.33
1725895100.313;350;10.33;34201.07
1725895100.363;350;10.33;34201.07
1725895100.417;350;10.33;34201.07
1725895100.464;350;12.24;36433.20
1725895100.514;350;11.30;35341.73
1725895100.564;350;11.30;35341.73
1725895100.614;350;11.30;35341.73
1725895100.664;350;11.41;35465.13
1725895100.713;350;11.08;35085.67
1725895100.765;350;11.96;36106.13
1725895100.815;350;11.96;36106.13
1725895100.865;350;11.92;36062.13
1725895100.915;350;12.15;36324.46
1725895100.965;350;12.15;36324.46
1725895101.015;350;12.15;36324.46
1725895101.066;350;12.47;36706.80
1725895101.115;350;12.75;37036.46
1725895101.165;350;12.75;37036.46
1725895101.215;350;12.75;37036.46
1725895101.265;350;12.77;37059.87
1725895101.315;350;13.00;37323.00
1725895101.367;350;13.00;37323.00
1725895101.416;350;13.00;37323.00
1725895101.467;350;12.91;37216.13
1725895101.517;350;12.57;36818.13
1725895101.567;350;12.57;36818.13
1725895101.617;350;12.57;36818.13
1725895101.667;350;13.00;37323.00
1725895101.717;350;12.30;36502.27
1725895101.767;350;12.30;36502.27
1725895101.817;350;12.30;36502.27
1725895101.867;350;10.46;34357.13
1725895101.917;350;10.54;34446.67
1725895101.967;350;10.54;34446.67
1725895102.017;350;10.54;34446.67
1725895102.067;350;10.64;34564.54
1725895102.117;350;12.68;36943.54
1725895102.168;350;12.68;36943.54
1725895102.217;350;12.68;36943.54
1725895102.268;350;12.75;37025.46
1725895102.317;350;12.00;36159.87
1725895102.368;350;12.00;36159.87
1725895102.418;350;12.00;36159.87
1725895102.468;350;13.00;37323.00
1725895102.518;350;10.57;34487.27
1725895102.568;350;10.57;34487.27
1725895102.618;350;10.57;34487.27
1725895102.668;350;12.96;37272.40
1725895102.719;350;11.94;36089.60
1725895102.768;350;11.94;36089.60
1725895102.818;350;11.94;36089.60
1725895102.869;350;12.97;37284.00
1725895114.495;350;11.05;35040.27
1725895114.545;350;10.83;34786.00
1725895114.595;350;10.83;34786.00
1725895114.695;350;10.64;34561.73
1725895114.745;350;10.64;34561.73
1725895114.795;350;10.64;34561.73
1725895114.845;350;10.64;34570.27
1725895114.895;350;10.64;34570.27
1725895114.945;350;10.64;34570.27
1725895114.995;350;12.15;36335.93
1725895115.045;350;12.15;36335.93
1725895115.096;350;12.15;36335.93
1725895115.145;350;11.23;35260.00
1725895115.197;350;11.19;35209.73
1725895115.247;350;11.19;35209.73
1725895115.297;350;11.19;35209.73
1725895115.348;350;10.26;34118.54
1725895115.398;350;10.26;34118.54
1725895115.447;350;10.26;34118.54
1725895115.498;350;11.94;36089.00
1725895115.548;350;10.47;34366.87
1725895115.598;350;10.47;34366.87
1725895115.648;350;10.47;34366.87
1725895115.699;350;10.77;34716.54
1725895115.748;350;10.02;33838.46
1725895115.799;350;10.02;33838.46
1725895115.848;350;10.02;33838.46
1725895115.900;350;12.30;36501.33
1725895115.949;350;11.39;35447.73
1725895115.999;350;11.39;35447.73
1725895116.049;350;11.39;35447.73
1725895116.099;350;12.18;36370.54
1725895116.149;350;10.53;34436.00
1725895116.199;350;10.53;34436.00
1725895116.249;350;10.53;34436.00
1725895116.300;350;11.32;35355.20
1725895116.349;350;12.32;36524.54
1725895116.400;350;12.32;36524.54
1725895116.450;350;12.39;36612.60
1725895116.499;350;12.96;37275.87
1725895116.549;350;13.00;37323.00
1725895116.599;350;13.00;37323.00
1725895116.649;350;11.98;36135.67
1725895116.699;350;11.05;35041.20
1725895116.750;350;11.05;35041.20
1725895116.800;350;11.05;35041.20
1725895116.849;350;10.68;34619.13
1725895116.900;350;11.47;35535.40
1725895116.951;350;11.47;35535.40
1725895117.001;350;11.47;35535.40
1725895117.050;350;12.78;37069.00
1725895117.100;350;12.77;37051.00
1725895117.150;350;12.74;37022.93
1725895117.201;350;12.74;37022.93
1725895117.251;350;12.65;36914.60
1725895117.300;350;12.08;36247.13
1725895117.350;350;12.08;36247.13
1725895117.400;350;12.08;36247.13
1725895117.450;350;11.40;35458.87
1725895117.500;350;10.59;34512.00
1725895117.550;350;10.59;34512.00
1725895117.600;350;12.87;37172.60
1725895117.650;350;11.88;36011.67
1725895117.701;350;11.88;36011.67
1725895117.751;350;11.61;35695.27
1725895117.801;350;12.89;37190.67
1725895117.851;350;12.79;37074.40
1725895117.901;350;12.79;37074.40
1725895117.951;350;12.79;37074.40
1725895118.001;350;12.98;37304.46
1725895118.051;350;11.65;35744.67
1725895118.102;350;11.65;35744.67
1725895118.151;350;11.65;35744.67
1725895118.202;350;12.89;37196.27
1725895118.251;350;11.75;35858.73
1725895118.302;350;11.75;35858.73
1725895118.352;350;12.50;36742.73
1725895118.403;350;12.94;37250.27
1725895118.452;350;12.94;37250.27
1725895118.503;350;12.94;37250.27
1725895118.553;350;12.85;37147.60
1725895118.603;350;12.85;37147.60
1725895118.652;350;12.85;37147.60
1725895118.702;350;11.24;35271.00
1725895118.753;350;11.17;35185.73
1725895118.803;350;11.17;35185.73
1725895118.853;350;10.41;34294.07
1725895118.903;350;10.72;34654.54
1725895118.953;350;11.41;35460.27
1725895119.003;350;11.41;35460.27
1725895119.053;350;11.98;36133.73
1725895119.103;350;10.76;34705.67
1725895119.153;350;12.48;36710.33
1725895119.203;350;12.48;36710.33
1725895119.253;350;12.48;36710.33
1725895119.303;350;12.44;36669.87
1725895130.588;350;10.54;34451.40
1725895130.638;350;10.54;34451.40
1725895130.688;350;10.54;34451.40
1725895130.737;350;9.82;33604.27
1725895130.788;350;10.71;34649.20
1725895130.838;350;10.71;34649.20
1725895130.887;350;10.71;34649.20
1725895130.938;350;12.04;36198.40
1725895130.988;350;12.04;36198.40
1725895131.038;350;12.04;36198.40
1725895131.088;350;11.69;35796.46
1725895131.138;350;12.92;37231.87
1725895131.189;350;12.92;37231.87
1725895131.239;350;12.92;37231.87
1725895131.289;350;11.67;35770.67
1725895131.339;350;11.47;35540.60
1725895131.389;350;11.94;36087.00
1725895131.438;350;11.94;36087.00
1725895131.488;350;11.94;36087.00
1725895131.539;350;12.73;37005.73
1725895131.589;350;12.96;37281.20
1725895131.638;350;12.96;37281.20
1725895131.689;350;12.96;37281.20
1725895131.739;350;11.77;35886.93
1725895131.789;350;11.77;35886.93
1725895131.839;350;11.77;35886.93
1725895131.889;350;12.21;36403.93
1725895131.938;350;11.17;35191.40
1725895131.989;350;11.17;35191.40
1725895132.039;350;11.17;35191.40
1725895132.090;350;10.68;34607.60
1725895132.140;350;11.52;35599.20
1725895132.189;350;11.52;35599.20
1725895132.240;350;11.52;35599.20
1725895132.290;350;11.52;35599.20
1725895132.340;350;12.83;37119.67
1725895132.389;350;12.32;36529.93
1725895132.439;350;12.32;36529.93
1725895132.490;350;12.32;36529.93
1725895132.541;350;11.72;35823.07
1725895132.591;350;11.93;36075.27
1725895132.641;350;11.93;36075.27
1725895132.692;350;12.82;37113.73
1725895132.741;350;12.78;37071.60
1725895132.791;350;12.78;37071.60
1725895132.841;350;12.78;37071.60
1725895132.892;350;12.61;36863.07
1725895132.941;350;12.96;37281.33
1725895132.992;350;12.96;37281.33
1725895133.041;350;12.96;37281.33
1725895133.091;350;12.31;36517.67
1725895133.142;350;11.84;35967.20
1725895133.193;350;11.84;35967.20
1725895133.244;350;11.84;35967.20
1725895133.293;350;12.65;36910.67
1725895133.342;350;11.49;35560.13
1725895133.393;350;11.49;35560.13
1725895133.442;350;11.49;35560.13
1725895133.493;350;13.00;37323.00
1725895133.542;350;11.15;35166.33
1725895133.593;350;11.15;35166.33
1725895133.642;350;11.15;35166.33
1725895133.693;350;12.62;36875.07
1725895133.743;350;12.62;36875.07
1725895133.793;350;12.62;36875.07
1725895133.844;350;12.92;37228.13
1725895133.894;350;12.93;37242.87
1725895133.944;350;12.42;36643.46
1725895133.994;350;12.42;36643.46
1725895134.044;350;12.42;36643.46
1725895134.094;350;12.77;37058.40
1725895134.145;350;12.76;37047.54
1725895134.195;350;12.76;37047.54
1725895134.245;350;12.76;37047.54
1725895134.295;350;12.78;37067.87
1725895134.345;350;10.23;34085.60
1725895134.395;350;10.23;34085.60
1725895134.445;350;10.23;34085.60
1725895134.495;350;12.92;37234.27
1725895134.545;350;11.11;35120.07
1725895134.596;350;12.21;36398.80
1725895134.646;350;12.21;36398.80
1725895134.695;350;12.21;36398.80
1725895134.747;350;11.95;36095.33
1725895134.797;350;11.95;36095.33
1725895134.847;350;11.95;36095.33
1725895134.897;350;10.48;34377.13
1725895134.947;350;12.96;37272.13
1725895134.997;350;12.96;37272.13
1725895135.048;350;12.96;37272.13
1725895135.097;350;12.60;36850.13
1725895135.147;350;12.78;37063.40
1725895135.198;350;12.78;37063.40
1725895135.248;350;12.78;37063.40
1725895135.298;350;11.46;35524.27
1725895135.348;350;11.77;35882.67
1725895135.398;350;11.77;35882.67
1725895135.448;350;11.77;35882.67
1725895135.498;350;12.30;36500.00
1725895135.548;350;11.77;35891.00
1725895135.599;350;11.77;35891.00
1725895135.648;350;11.77;35891.00
1725895135.698;350;11.24;35270.46
1725895539.398;44;30.00;33955.46
1725895539.448;44;30.00;33955.46
1725895539.498;44;30.00;33955.46
1725895539.548;36;30.00;34770.13
1725895539.598;16;30.00;36968.00
1725895539.648;16;30.00;36968.00
1725895539.698;16;30.00;36968.00
1725895539.748;28;30.00;35620.54
1725895539.798;28;30.00;35620.54
1725895539.848;28;30.00;35620.54
1725895539.898;25;30.00;35964.54
1725895539.948;36;30.00;34747.93
1725895539.997;36;30.00;34747.93
1725895540.048;36;30.00;34747.93
1725895540.097;22;30.00;36253.80
1725895540.148;16;30.00;36911.40
1725895540.198;15;30.00;37009.00
1725895540.248;15;30.00;37009.00
1725895540.298;38;30.00;34590.54
1725895540.348;32;30.00;35185.93
1725895540.398;44;30.00;33887.46
1725895540.448;44;30.00;33887.46
1725895540.498;42;30.00;34126.07
1725895540.549;29;30.00;35514.80
1725895540.599;17;30.00;36815.20
1725895540.648;17;30.00;36815.20
1725895540.698;20;30.00;36500.33
1725895540.749;33;30.00;35052.87
1725895540.799;37;30.00;34682.60
1725895540.848;37;30.00;34682.60
1725895540.898;37;30.00;34682.60
1725895540.949;39;30.00;34500.27
1725895540.999;23;30.00;36153.13
1725895541.049;23;30.00;36153.13
1725895541.100;23;30.00;36153.13
1725895541.150;23;30.00;36153.13
1725895541.199;21;30.00;36350.93
1725895541.250;32;30.00;35220.46
1725895541.300;32;30.00;35220.46
1725895541.351;32;30.00;35220.46
1725895541.402;42;30.00;34168.00
1725895541.451;39;30.00;34455.00
1725895541.502;39;30.00;34455.00
1725895541.551;39;30.00;34455.00
1725895541.601;42;30.00;34085.87
1725895541.651;43;30.00;34054.67
1725895541.701;43;30.00;34054.67
1725895541.751;37;30.00;34643.46
1725895541.802;47;30.00;33605.33
1725895541.853;47;30.00;33605.33
1725895541.903;47;30.00;33605.33
1725895541.953;44;30.00;33949.54
1725895542.004;44;30.00;33949.54
1725895542.054;44;30.00;33949.54
1725895542.105;35;30.00;34853.27
1725895542.156;25;30.00;35925.13
1725895542.207;25;30.00;35925.13
1725895542.257;25;30.00;35925.13
1725895542.307;33;30.00;35153.60
1725895542.356;18;30.00;36738.54
1725895542.407;18;30.00;36738.54
1725895542.457;18;30.00;36738.54
1725895542.506;41;30.00;34223.67
1725895542.557;43;30.00;33964.54
1725895542.607;45;30.00;33801.33
1725895542.657;45;30.00;33801.33
1725895542.707;32;30.00;35228.13
1725895542.758;31;30.00;35287.46
1725895542.807;31;30.00;35287.46
1725895542.857;31;30.00;35287.46
1725895542.907;35;30.00;34886.54
1725895542.957;45;30.00;33839.87
1725895543.007;45;30.00;33839.87
1725895543.057;45;30.00;33839.87
1725895543.107;19;30.00;36588.13
1725895543.157;27;30.00;35768.07
1725895543.207;27;30.00;35768.07
1725895543.267;27;30.00;35768.07
1725895543.315;18;30.00;36694.60
1725895543.365;42;30.00;34120.40
1725895543.415;42;30.00;34120.40
1725895543.464;42;30.00;34120.40
1725895543.515;40;30.00;34369.27
1725895543.565;17;30.00;36849.00
1725895543.615;17;30.00;36849.00
1725895543.666;17;30.00;36849.00
1725895543.716;39;30.00;34423.60
1725895543.767;45;30.00;33764.13
1725895543.817;45;30.00;33764.13
1725895543.867;45;30.00;33764.13
1725895543.917;41;30.00;34179.33
1725895543.967;17;30.00;36860.13
1725895544.017;17;30.00;36860.13
1725895544.067;17;30.00;36860.13
1725895544.117;43;30.00;34026.67
1725895544.167;24;30.00;36051.73
1725895544.217;24;30.00;36051.73
1725895544.267;24;30.00;36051.73
1725895544.317;23;30.00;36131.87
1725895556.079;47;30.00;33560.40
1725895556.129;47;30.00;33560.40
1725895556.179;47;30.00;33560.40
1725895556.229;48;30.00;33523.60
1725895556.279;21;30.00;36419.07
1725895556.329;21;30.00;36419.07
1725895556.379;21;30.00;36419.07
1725895556.429;21;30.00;36419.07
1725895556.480;18;30.00;36715.33
1725895556.530;18;30.00;36715.33
1725895556.580;18;30.00;36715.33
1725895556.630;18;30.00;36765.27
1725895556.681;30;30.00;35469.93
1725895556.732;30;30.00;35469.93
1725895556.782;30;30.00;35469.93
1725895556.832;44;30.00;33874.13
1725895556.883;29;30.00;35581.80
1725895556.934;29;30.00;35581.80
1725895556.984;23;30.00;36229.87
1725895557.033;28;30.00;35695.00
1725895557.084;28;30.00;35695.00
1725895557.133;28;30.00;35695.00
1725895557.334;41;30.00;34244.33
1725895557.384;42;30.00;34167.67
1725895557.434;42;30.00;34167.67
1725895557.484;42;30.00;34167.67
1725895557.535;31;30.00;35293.33
1725895557.584;16;30.00;36965.93
1725895557.635;16;30.00;36965.93
1725895557.684;16;30.00;36965.93
1725895557.735;16;30.00;36965.93
1725895558.035;39;30.00;34454.46
1725895558.086;39;30.00;34454.46
1725895558.137;41;30.00;34237.33
1725895558.187;22;30.00;36294.40
1725895558.236;22;30.00;36294.40
1725895558.287;22;30.00;36294.40
1725895558.337;21;30.00;36371.87
1725895558.387;26;30.00;35902.46
1725895558.437;26;30.00;35902.46
1725895558.487;26;30.00;35902.46
1725895558.537;30;30.00;35421.54
1725895558.586;20;30.00;36555.33
1725895558.637;20;30.00;36555.33
1725895558.687;42;30.00;34089.07
1725895558.737;41;30.00;34184.80
1725895558.787;45;30.00;33816.27
1725895558.837;45;30.00;33816.27
1725895558.887;26;30.00;35841.20
1725895558.937;15;30.00;37007.40
1725895558.986;15;30.00;37007.40
1725895559.037;15;30.00;37007.40
1725895559.087;39;30.00;34472.54
1725895559.137;37;30.00;34670.13
1725895559.187;28;30.00;35668.13
1725895559.236;28;30.00;35668.13
1725895559.287;34;30.00;34989.20
1725895559.337;20;30.00;36520.00
1725895559.738;45;30.00;33822.60
1725895559.787;38;30.00;34590.20
1725895559.837;38;30.00;34590.20
1725895559.887;38;30.00;34590.20
1725895559.937;19;30.00;36644.46
1725895559.987;25;30.00;36018.13
1725895560.038;25;30.00;36018.13
1725895560.088;25;30.00;36018.13
1725895560.138;20;30.00;36513.40
1725895560.188;34;30.00;35001.20
1725895560.237;34;30.00;35001.20
1725895560.288;34;30.00;35001.20
1725895560.337;21;30.00;36405.60
1725895560.388;36;30.00;34792.00
1725895560.438;36;30.00;34792.00
1725895560.488;36;30.00;34792.00
1725895560.538;30;30.00;35442.73
1725895560.588;44;30.00;33867.73
1725895560.638;44;30.00;33867.73
1725895560.688;44;30.00;33867.73
1725895560.738;44;30.00;33867.73
1725895560.787;30;30.00;35380.40
1725895560.838;23;30.00;36137.60
1725895560.889;23;30.00;36137.60
1725895560.939;23;30.00;36137.60
1725895560.988;26;30.00;35862.67
1725895561.038;26;30.00;35862.67
1725895561.088;26;30.00;35862.67
1725895561.138;26;30.00;35862.67
1725895572.733;35;30.00;34875.13
1725895572.781;38;30.00;34525.27
1725895572.831;38;30.00;34525.27
1725895572.881;38;30.00;34525.27
1725895572.931;35;30.00;34922.20
1725895572.981;31;30.00;35325.80
1725895573.030;31;30.00;35325.80
1725895573.081;31;30.00;35325.80
1725895573.131;27;30.00;35704.40
1725895573.182;27;30.00;35704.40
1725895573.232;27;30.00;35704.40
1725895573.282;41;30.00;34234.73
1725895573.332;41;30.00;34234.73
1725895573.383;41;30.00;34234.73
1725895573.432;47;30.00;33621.13
1725895573.482;21;30.00;36373.27
1725895573.532;21;30.00;36373.27
1725895573.584;21;30.00;36373.27
1725895573.633;23;30.00;36160.93
1725895573.683;19;30.00;36660.07
1725895573.734;19;30.00;36660.07
1725895573.784;19;30.00;36660.07
1725895573.833;18;30.00;36752.67
1725895573.884;44;30.00;33920.87
1725895573.933;40;30.00;34353.40
1725895573.984;40;30.00;34353.40
1725895574.034;40;30.00;34353.40
1725895574.133;29;30.00;35488.40
1725895574.184;29;30.00;35488.40
1725895574.233;29;30.00;35488.40
1725895574.284;38;30.00;34514.60
1725895574.334;47;30.00;33595.54
1725895574.384;47;30.00;33595.54
1725895574.434;22;30.00;36336.13
1725895574.485;18;30.00;36682.93
1725895574.535;18;30.00;36682.93
1725895574.584;18;30.00;36682.93
1725895574.634;26;30.00;35812.93
1725895574.684;23;30.00;36134.00
1725895574.735;23;30.00;36134.00
1725895574.785;23;30.00;36134.00
1725895574.835;47;30.00;33600.73
1725895574.885;26;30.00;35843.87
1725895574.937;26;30.00;35843.87
1725895574.986;26;30.00;35843.87
1725895575.038;40;30.00;34359.87
1725895575.088;40;30.00;34359.87
1725895575.137;40;30.00;34359.87
1725895575.188;40;30.00;34359.87
1725895575.238;41;30.00;34223.73
1725895575.287;44;30.00;33949.07
1725895575.339;44;30.00;33949.07
1725895575.388;44;30.00;33949.07
1725895575.439;22;30.00;36306.54
1725895575.488;17;30.00;36839.20
1725895575.539;17;30.00;36839.20
1725895575.589;17;30.00;36839.20
1725895575.638;42;30.00;34106.13
1725895575.688;45;30.00;33823.73
1725895575.739;45;30.00;33823.73
1725895575.788;45;30.00;33823.73
1725895575.839;23;30.00;36170.40
1725895575.889;23;30.00;36170.40
1725895575.939;23;30.00;36170.40
1725895575.989;23;30.00;36170.40
1725895576.038;24;30.00;36044.80
1725895576.088;33;30.00;35047.73
1725895576.139;33;30.00;35047.73
1725895576.190;33;30.00;35047.73
1725895576.241;20;30.00;36553.54
1725895576.290;15;30.00;37008.93
1725895576.340;15;30.00;37008.93
1725895576.390;15;30.00;37008.93
1725895576.441;46;30.00;33652.27
1725895576.490;44;30.00;33877.46
1725895576.541;44;30.00;33877.46
1725895576.590;44;30.00;33877.46
1725895576.640;47;30.00;33575.54
1725895576.690;43;30.00;34018.13
1725895576.741;46;30.00;33729.46
1725895576.791;46;30.00;33729.46
1725895576.841;22;30.00;36259.93
1725895576.890;16;30.00;36939.46
1725895576.941;16;30.00;36939.46
1725895576.991;16;30.00;36939.46
1725895577.042;28;30.00;35592.07
1725895577.092;35;30.00;34914.07
1725895577.142;35;30.00;34914.07
1725895577.192;35;30.00;34914.07
1725895577.242;16;30.00;36974.07
1725895577.292;16;30.00;36974.07
1725895577.342;16;30.00;36974.07
1725895577.392;16;30.00;36974.07
1725895577.442;30;30.00;35477.20
1725895577.492;32;30.00;35165.20
1725895577.541;32;30.00;35165.20
1725895577.592;32;30.00;35165.20
1725895577.642;34;30.00;35017.46
1725895808.594;48;40.00;33474.60
1725895808.644;48;40.00;33474.60
1725895808.694;48;40.00;33474.60
1725895808.744;41;40.00;34236.00
1725895808.795;13;40.00;37263.40
1725895808.845;13;40.00;37263.40
1725895808.895;13;40.00;37263.40
1725895808.946;19;40.00;36638.73
1725895808.995;26;40.00;35825.00
1725895809.046;26;40.00;35825.00
1725895809.197;45;40.00;33828.33
1725895809.247;45;40.00;33828.33
1725895809.347;41;40.00;34228.93
1725895809.396;40;40.00;34295.33
1725895809.447;40;40.00;34295.33
1725895809.496;34;40.00;34992.40
1725895809.547;21;40.00;36377.87
1725895809.597;22;40.00;36256.54
1725895809.647;22;40.00;36256.54
1725895809.697;32;40.00;35232.54
1725895809.748;22;40.00;36300.73
1725895809.797;22;40.00;36300.73
1725895809.848;22;40.00;36300.73
1725895809.898;17;40.00;36882.87
1725895809.948;40;40.00;34351.27
1725895809.998;40;40.00;34351.27
1725895810.048;40;40.00;34351.27
1725895810.097;22;40.00;36249.87
1725895810.149;22;40.00;36249.87
1725895810.198;22;40.00;36249.87
1725895810.249;45;40.00;33847.33
1725895810.299;37;40.00;34712.33
1725895810.349;37;40.00;34712.33
1725895810.398;18;40.00;36697.33
1725895810.448;43;40.00;33989.93
1725895810.498;44;40.00;33869.73
1725895810.548;44;40.00;33869.73
1725895810.599;44;40.00;33869.73
1725895810.649;21;40.00;36361.13
1725895810.699;27;40.00;35718.93
1725895810.749;27;40.00;35718.93
1725895810.801;15;40.00;36999.40
1725895810.850;26;40.00;35880.67
1725895810.900;41;40.00;34278.27
1725895810.950;41;40.00;34278.27
1725895811.000;41;40.00;34278.27
1725895811.101;30;40.00;35388.73
1725895811.150;30;40.00;35388.73
1725895811.200;30;40.00;35388.73
1725895811.251;38;40.00;34569.20
1725895811.301;25;40.00;35931.54
1725895811.351;25;40.00;35931.54
1725895811.402;25;40.00;35931.54
1725895811.452;17;40.00;36786.80
1725895811.502;19;40.00;36597.54
1725895811.552;19;40.00;36597.54
1725895811.602;19;40.00;36597.54
1725895811.653;22;40.00;36332.20
1725895811.702;46;40.00;33636.54
1725895811.754;46;40.00;33636.54
1725895811.803;46;40.00;33636.54
1725895811.854;22;40.00;36318.87
1725895811.904;19;40.00;36584.80
1725895811.954;19;40.00;36584.80
1725895812.005;19;40.00;36584.80
1725895812.056;22;40.00;36239.33
1725895812.105;34;40.00;34968.87
1725895812.155;34;40.00;34968.87
1725895812.205;43;40.00;33989.93
1725895812.256;45;40.00;33844.40
1725895812.305;48;40.00;33511.33
1725895812.357;48;40.00;33511.33
1725895812.406;48;40.00;33511.33
1725895812.456;14;40.00;37185.73
1725895812.506;25;40.00;36010.67
1725895812.556;25;40.00;36010.67
1725895812.607;40;40.00;34291.46
1725895812.657;44;40.00;33893.07
1725895812.707;45;40.00;33838.87
1725895812.756;45;40.00;33838.87
1725895812.807;40;40.00;34291.46
1725895812.857;37;40.00;34675.13
1725895812.907;31;40.00;35339.80
1725895812.956;31;40.00;35339.80
1725895813.007;16;40.00;36909.33
1725895813.057;30;40.00;35453.40
1725895813.107;47;40.00;33632.00
1725895813.157;47;40.00;33632.00
1725895813.206;47;40.00;33632.00
1725895813.257;23;40.00;36229.40
1725895813.307;15;40.00;37102.13
1725895813.357;15;40.00;37102.13
1725895813.407;17;40.00;36813.40
1725895813.457;29;40.00;35555.73
1725895813.507;45;40.00;33756.80
1725895813.558;45;40.00;33756.80
1725895813.608;45;40.00;33756.80
1725895813.658;47;40.00;33550.54
1725895825.214;46;40.00;33650.87
1725895825.264;46;40.00;33650.87
1725895825.314;46;40.00;33650.87
1725895825.364;36;40.00;34801.00
1725895825.414;36;40.00;34801.00
1725895825.465;17;40.00;36808.13
1725895825.514;14;40.00;37143.87
1725895825.565;14;40.00;37143.87
1725895825.615;14;40.00;37143.87
1725895825.664;46;40.00;33721.46
1725895825.715;46;40.00;33721.46
1725895825.764;46;40.00;33721.46
1725895825.815;26;40.00;35824.20
1725895825.865;23;40.00;36148.00
1725895825.914;28;40.00;35601.33
1725895825.965;28;40.00;35601.33
1725895826.016;28;40.00;35601.33
1725895826.067;30;40.00;35376.93
1725895826.116;42;40.00;34119.40
1725895826.166;42;40.00;34119.40
1725895826.218;42;40.00;34119.40
1725895826.268;15;40.00;37090.87
1725895826.318;40;40.00;34385.27
1725895826.368;40;40.00;34385.27
1725895826.417;40;40.00;34385.27
1725895826.468;40;40.00;34385.27
1725895826.518;16;40.00;36940.46
1725895826.568;16;40.00;36895.20
1725895826.618;16;40.00;36895.20
1725895826.668;33;40.00;35089.33
1725895826.717;31;40.00;35324.46
1725895826.767;31;40.00;35324.46
1725895826.818;31;40.00;35324.46
1725895826.868;31;40.00;35324.46
1725895826.923;15;40.00;37091.67
1725895826.970;30;40.00;35419.46
1725895827.020;30;40.00;35419.46
1725895827.070;30;40.00;35419.46
1725895827.120;35;40.00;34871.54
1725895827.170;30;40.00;35408.00
1725895827.220;30;40.00;35408.00
1725895827.271;30;40.00;35408.00
1725895827.320;42;40.00;34129.73
1725895827.370;23;40.00;36223.93
1725895827.421;23;40.00;36223.93
1725895827.470;23;40.00;36223.93
1725895827.520;32;40.00;35199.73
1725895827.571;32;40.00;35199.73
1725895827.621;32;40.00;35199.73
1725895827.670;22;40.00;36335.40
1725895827.721;20;40.00;36553.54
1725895827.771;20;40.00;36553.54
1725895827.821;20;40.00;36553.54
1725895827.870;26;40.00;35857.40
1725895827.922;46;40.00;33684.40
1725895827.971;46;40.00;33684.40
1725895828.021;46;40.00;33684.40
1725895828.072;17;40.00;36818.33
1725895828.122;15;40.00;37048.67
1725895828.172;15;40.00;37048.67
1725895828.222;15;40.00;37048.67
1725895828.273;20;40.00;36483.54
1725895828.323;46;40.00;33676.67
1725895828.373;46;40.00;33676.67
1725895828.422;46;40.00;33676.67
1725895828.473;24;40.00;36065.93
1725895828.522;15;40.00;37076.13
1725895828.572;15;40.00;37076.13
1725895828.623;15;40.00;37076.13
1725895828.673;15;40.00;37076.13
1725895828.723;26;40.00;35877.73
1725895828.773;26;40.00;35877.73
1725895828.823;26;40.00;35877.73
1725895828.873;26;40.00;35877.73
1725895828.924;31;40.00;35311.20
1725895828.974;31;40.00;35311.20
1725895829.023;31;40.00;35311.20
1725895829.073;31;40.00;35311.20
1725895829.124;27;40.00;35767.20
1725895829.174;23;40.00;36190.60
1725895829.224;32;40.00;35219.13
1725895829.274;32;40.00;35219.13
1725895829.324;32;40.00;35219.13
1725895829.375;43;40.00;33986.27
1725895829.424;36;40.00;34769.13
1725895829.474;36;40.00;34769.13
1725895829.525;38;40.00;34609.27
1725895829.575;19;40.00;36630.93
1725895829.625;44;40.00;33907.20
1725895829.675;44;40.00;33907.20
1725895829.725;44;40.00;33907.20
1725895829.776;18;40.00;36768.46
1725895829.825;14;40.00;37157.87
1725895829.876;14;40.00;37157.87
1725895829.925;14;40.00;37157.87
1725895829.977;32;40.00;35259.60
1725895830.027;34;40.00;35000.87
1725895830.077;34;40.00;35000.87
1725895830.127;34;40.00;35000.87
1725895830.177;32;40.00;35197.13
1725895830.228;24;40.00;36084.67
1725895830.277;24;40.00;36084.67
1725895830.327;24;40.00;36084.67
1725895830.377;45;40.00;33838.27
1725895842.113;47;40.00;33596.67
1725895842.163;47;40.00;33596.67
1725895842.213;47;40.00;33596.67
1725895842.263;36;40.00;34766.60
1725895842.313;36;40.00;34766.60
1725895842.363;36;40.00;34766.60
1725895842.413;36;40.00;34766.60
1725895842.613;43;40.00;33989.20
1725895842.664;43;40.00;33989.20
1725895842.714;43;40.00;33989.20
1725895842.763;34;40.00;34963.40
1725895842.813;45;40.00;33843.60
1725895842.864;45;40.00;33843.60
1725895842.913;45;40.00;33843.60
1725895842.963;16;40.00;36934.13
1725895843.014;17;40.00;36849.93
1725895843.064;17;40.00;36849.93
1725895843.114;17;40.00;36849.93
1725895843.164;47;40.00;33530.40
1725895843.215;46;40.00;33719.07
1725895843.264;46;40.00;33719.07
1725895843.314;46;40.00;33719.07
1725895843.364;36;40.00;34779.40
1725895843.414;14;40.00;37110.93
1725895843.464;14;40.00;37110.93
1725895843.514;14;40.00;37110.93
1725895843.564;35;40.00;34877.93
1725895843.615;45;40.00;33828.33
1725895843.666;43;40.00;33999.07
1725895843.716;43;40.00;33999.07
1725895843.766;21;40.00;36364.13
1725895843.816;22;40.00;36249.33
1725895843.867;22;40.00;36249.33
1725895843.916;22;40.00;36249.33
1725895843.966;47;40.00;33540.33
1725895844.016;31;40.00;35326.46
1725895844.067;31;40.00;35326.46
1725895844.118;31;40.00;35326.46
1725895844.168;40;40.00;34389.00
1725895844.217;40;40.00;34389.00
1725895844.268;40;40.00;34389.00
1725895844.318;40;40.00;34389.00
1725895844.417;17;40.00;36876.33
1725895844.468;17;40.00;36876.33
1725895844.518;17;40.00;36876.33
1725895844.618;33;40.00;35142.87
1725895844.668;33;40.00;35142.87
1725895844.718;33;40.00;35142.87
1725895844.769;46;40.00;33679.60
1725895844.818;47;40.00;33578.00
1725895844.868;47;40.00;33578.00
1725895844.919;47;40.00;33578.00
1725895844.969;17;40.00;36834.20
1725895845.018;17;40.00;36834.20
1725895845.069;17;40.00;36834.20
1725895845.118;15;40.00;37065.20
1725895845.169;46;40.00;33652.46
1725895845.219;46;40.00;33652.46
1725895845.270;46;40.00;33652.46
1725895845.319;41;40.00;34183.87
1725895845.369;44;40.00;33900.13
1725895845.421;44;40.00;33900.13
1725895845.470;44;40.00;33901.00
1725895845.521;21;40.00;36422.80
1725895845.570;18;40.00;36720.27
1725895845.620;18;40.00;36720.27
1725895845.671;18;40.00;36720.27
1725895845.721;44;40.00;33920.54
1725895845.771;21;40.00;36411.80
1725895845.822;21;40.00;36411.80
1725895845.871;25;40.00;35933.87
1725895845.921;16;40.00;36900.73
1725895845.972;16;40.00;36900.73
1725895846.021;16;40.00;36900.73
1725895846.072;47;40.00;33553.33
1725895846.271;16;40.00;36932.46
1725895846.321;46;40.00;33740.73
1725895846.372;46;40.00;33740.73
1725895846.421;46;40.00;33740.73
1725895846.472;25;40.00;35996.93
1725895846.522;23;40.00;36143.80
1725895846.572;23;40.00;36143.80
1725895846.622;23;40.00;36143.80
1725895846.673;23;40.00;36206.87
1725895846.723;43;40.00;34047.46
1725895846.774;43;40.00;34047.46
1725895846.824;43;40.00;34047.46
1725895846.874;33;40.00;35055.73
1725895846.925;42;40.00;34134.73
