UnixTimestamp;Microseconds;MilliAmpere;BaseValue
1724369801.929;200;34.00
1724369801.977;200;34.00
1724369802.026;200;34.00
1724369802.076;200;34.00
1724369802.126;200;34.00
1724369802.177;200;34.00
1724369802.227;200;34.00
1724369802.277;200;34.00
1724369802.328;200;34.00
1724369802.377;200;34.00
1724369802.426;200;34.00
1724369802.478;200;34.00
1724369802.527;200;34.00
1724369802.577;200;34.00
1724369802.627;200;34.00
1724369802.677;200;34.00
1724369802.727;200;34.00
1724369802.778;200;34.00
1724369802.827;200;34.00
1724369802.877;200;34.00
1724369802.927;200;34.00
1724369802.978;200;34.00
1724369803.028;200;34.00
1724369803.078;200;34.00
1724369803.127;200;34.00
1724369803.178;200;34.00
1724369803.228;200;34.00
1724369803.281;200;34.00
1724369820.980;300;59.66;48663.21
1724369821.030;300;56.62;43666.93
1724369821.080;300;55.91;42496.93
1724369821.131;300;55.91;42496.93
1724369821.182;300;55.91;42496.93
1724369821.231;300;57.43;44996.93
1724369821.281;300;57.43;44996.93
1724369821.331;300;57.43;44996.93
1724369821.382;300;57.43;44996.93
1724369821.431;300;57.43;44996.93
1724369821.481;300;57.43;44996.93
1724369821.532;300;57.43;44996.93
1724369821.582;300;57.72;45475.60
1724369821.632;300;60.62;50237.60
1724369821.682;300;59.38;48204.13
1724369821.733;300;57.13;44501.27
1724369821.783;300;58.06;46027.80
1724369821.833;300;58.06;46027.80
1724369821.883;300;58.06;46027.80
1724369821.933;300;58.06;46027.80
1724369821.985;300;58.06;46027.80
1724369822.033;300;61.56;51786.73
1724369822.083;300;57.45;45031.13
1724369822.132;300;58.31;46441.80
1724369822.183;300;60.16;49486.07
1724369822.233;300;59.68;48701.80
1724369822.283;300;59.68;48701.80
1724369822.332;300;59.68;48701.80
1724369822.383;300;61.27;51314.93
1724369822.433;300;59.96;49150.33
1724369822.483;300;61.45;51609.00
1724369822.533;300;55.48;41777.60
1724369822.583;300;55.48;41777.60
1724369822.635;300;55.48;41777.60
1724369822.685;300;55.48;41777.60
1724369822.735;300;58.89;47394.80
1724369822.785;300;60.25;49626.54
1724369822.835;300;58.91;47423.13
1724369822.884;300;58.91;47423.13
1724369822.934;300;58.91;47423.13
1724369822.985;300;58.91;47423.13
1724369823.035;300;58.91;47423.13
1724369823.084;300;60.67;50332.46
1724369823.135;300;60.29;49692.87
1724369823.184;300;57.97;45878.87
1724369823.235;300;59.24;47965.60
1724369823.285;300;59.24;47965.60
1724369823.335;300;59.24;47965.60
1724369823.385;300;59.24;47965.60
1724369823.436;300;61.88;52310.80
1724369823.486;300;59.59;48546.67
1724369823.535;300;62.28;52977.20
1724369823.586;300;61.76;52125.40
1724369823.635;300;57.15;44529.00
1724369823.685;300;57.15;44529.00
1724369823.736;300;57.15;44529.00
1724369823.786;300;57.15;44529.00
1724369823.835;300;57.15;44529.00
1724369823.886;300;59.94;49123.60
1724369823.936;300;60.13;49441.73
1724369823.985;300;61.93;52399.93
1724369824.037;300;61.40;51531.67
1724369824.087;300;62.91;54005.27
1724369824.137;300;60.47;49992.54
1724369824.186;300;60.47;49992.54
1724369824.236;300;60.47;49992.54
1724369824.287;300;60.47;49992.54
1724369824.337;300;60.18;49517.54
1724369824.387;300;63.48;54940.40
1724369824.437;300;59.93;49103.27
1724369824.488;300;60.64;50283.07
1724369824.537;300;60.64;50283.07
1724369824.587;300;62.13;52720.07
1724369824.642;300;56.37;43245.67
1724369824.688;300;58.30;46422.00
1724369824.739;300;57.48;45069.73
1724369824.789;300;57.48;45069.73
1724369824.840;300;57.48;45069.73
1724369824.889;300;59.51;48422.33
1724369824.939;300;60.93;50748.46
1724369824.990;300;59.77;48840.46
1724369825.040;300;59.77;48840.46
1724369825.089;300;59.77;48840.46
1724369825.140;300;63.16;54427.73
1724369825.190;300;60.42;49919.33
1724369825.240;300;60.28;49678.20
1724369825.290;300;60.28;49678.20
1724369825.340;300;60.28;49678.20
1724369825.389;300;59.42;48271.07
1724369825.439;300;59.90;49057.00
1724369825.490;300;59.90;49057.00
1724369825.540;300;59.81;48905.54
1724369825.591;300;59.81;48905.54
1724369825.641;300;59.81;48905.54
1724369825.690;300;61.93;52397.73
1724369825.740;300;58.88;47386.00
1724369825.791;300;63.03;54205.33
1724369825.842;300;56.53;43506.93
1724369825.891;300;56.53;43506.93
1724369825.941;300;56.53;43506.93
1724369825.991;300;56.53;43506.93
1724369826.042;300;57.59;45256.80
1724369826.091;300;58.95;47502.67
1724369826.141;300;59.41;48252.00
1724369826.192;300;61.32;51390.20
1724369826.241;300;61.32;51390.20
1724369826.293;300;61.32;51390.20
1724369826.342;300;62.89;53983.67
1724369826.393;300;58.90;47406.87
1724369826.443;300;60.09;49366.73
1724369826.493;300;59.69;48705.20
1724369826.543;300;57.80;45601.33
1724369826.593;300;57.80;45601.33
1724369826.643;300;57.80;45601.33
1724369826.693;300;57.80;45601.33
1724369826.743;300;59.58;48534.54
1724369826.793;300;60.61;50222.54
1724369826.843;300;60.13;49435.40
1724369826.892;300;60.53;50101.54
1724369826.944;300;58.31;46446.80
1724369826.994;300;59.50;48403.13
1724369827.044;300;62.84;53900.80
1724369827.094;300;62.84;53900.80
1724369827.144;300;62.84;53900.80
1724369827.194;300;62.84;53900.80
1724369827.245;300;60.86;50631.33
1724369827.295;300;58.40;46588.60
1724369827.344;300;58.98;47541.33
1724369827.395;300;60.94;50770.20
1724369827.444;300;61.61;51872.20
1724369827.495;300;61.61;51872.20
1724369827.545;300;61.61;51872.20
1724369827.595;300;61.61;51872.20
1724369827.644;300;57.44;45015.93
1724369827.695;300;60.07;49335.67
1724369827.745;300;60.01;49235.87
1724369827.794;300;60.68;50333.13
1724369827.844;300;63.13;54370.13
1724369827.894;300;63.13;54370.13
1724369827.945;300;63.13;54370.13
1724369827.994;300;63.13;54370.13
1724369828.045;300;58.02;45959.80
1724369828.095;300;57.43;44999.07
1724369828.144;300;61.41;51538.46
1724369828.195;300;60.15;49475.73
1724369828.244;300;60.15;49475.73
1724369828.294;300;60.15;49475.73
1724369828.344;300;56.68;43762.80
1724369828.395;300;62.37;53126.60
1724369828.445;300;58.85;47326.33
1724369828.495;300;58.85;47326.33
1724369828.545;300;58.85;47326.33
1724369828.595;300;60.65;50283.67
1724369828.645;300;59.99;49197.93
1724369828.695;300;61.78;52157.80
1724369828.745;300;61.78;52157.80
1724369828.794;300;61.78;52157.80
1724369828.845;300;59.53;48450.93
1724369828.894;300;62.41;53180.07
1724369828.945;300;60.28;49679.27
1724369828.995;300;60.28;49679.27
1724369829.045;300;60.28;49679.27
1724369829.095;300;59.79;48868.73
1724369829.144;300;61.49;51666.87
1724369829.196;300;63.30;54652.33
1724369829.245;300;63.30;54652.33
1724369829.294;300;63.30;54652.33
1724369829.345;300;63.30;54652.33
1724369829.395;300;60.49;50026.40
1724369829.445;300;58.05;46008.13
1724369829.494;300;60.36;49808.00
1724369829.545;300;60.36;49808.00
1724369829.595;300;60.36;49808.00
1724369829.645;300;60.36;49808.00
1724369829.695;300;60.79;50522.40
1724369829.746;300;59.49;48380.07
1724369829.796;300;59.87;49012.54
1724369829.846;300;61.51;51708.20
1724369829.896;300;61.51;51708.20
1724369829.945;300;61.51;51708.20
1724369829.995;300;59.70;48735.20
1724369830.046;300;60.99;50845.87
1724369830.096;300;58.05;46009.73
1724369830.146;300;58.05;46009.73
1724369830.196;300;58.05;46009.73
1724369830.245;300;59.33;48119.07
1724369830.296;300;60.57;50154.27
1724369830.346;300;59.75;48812.07
1724369830.396;300;61.32;51394.00
1724369830.447;300;61.14;51090.00
1724369830.497;300;61.14;51090.00
1724369830.547;300;61.14;51090.00
1724369830.597;300;63.81;55483.07
1724369830.647;300;57.43;44990.33
1724369830.697;300;56.06;42737.33
1724369839.795;300;60.15;49460.80
1724369839.845;300;60.60;50214.60
1724369839.896;300;60.60;50214.60
1724369839.945;300;60.60;50214.60
1724369839.995;300;61.60;51857.20
1724369840.047;300;63.41;54828.20
1724369840.097;300;62.38;53135.13
1724369840.147;300;62.38;53135.13
1724369840.196;300;62.38;53135.13
1724369840.246;300;62.38;53130.46
1724369840.297;300;60.44;49948.40
1724369840.346;300;60.55;50120.07
1724369840.397;300;60.55;50120.07
1724369840.447;300;60.55;50120.07
1724369840.497;300;60.55;50120.07
1724369840.547;300;60.35;49806.13
1724369840.597;300;59.27;48023.80
1724369840.648;300;59.27;48023.80
1724369840.698;300;59.27;48023.80
1724369840.747;300;59.27;48023.80
1724369840.797;300;61.79;52165.13
1724369840.848;300;61.92;52380.33
1724369840.899;300;61.04;50931.27
1724369840.949;300;61.04;50931.27
1724369840.998;300;61.04;50931.27
1724369841.049;300;61.04;50931.27
1724369841.099;300;59.93;49114.93
1724369841.148;300;60.02;49256.87
1724369841.198;300;60.77;50495.27
1724369841.248;300;60.77;50495.27
1724369841.298;300;60.77;50495.27
1724369841.348;300;57.72;45466.80
1724369841.399;300;60.47;50000.40
1724369841.448;300;59.93;49100.07
1724369841.498;300;59.93;49100.07
1724369841.549;300;59.93;49100.07
1724369841.599;300;59.93;49100.07
1724369841.648;300;60.51;50058.60
1724369841.698;300;62.38;53139.13
1724369841.748;300;61.59;51831.60
1724369841.798;300;61.59;51831.60
1724369841.849;300;61.59;51831.60
1724369841.899;300;60.86;50633.20
1724369841.950;300;62.57;53447.40
1724369842.000;300;62.37;53116.13
1724369842.049;300;63.21;54503.00
1724369842.099;300;63.21;54503.00
1724369842.150;300;63.21;54503.00
1724369842.200;300;63.21;54503.00
1724369842.250;300;61.84;52251.73
1724369842.301;300;61.27;51314.00
1724369842.351;300;60.15;49468.13
1724369842.401;300;61.80;52177.60
1724369842.452;300;60.86;50644.46
1724369842.502;300;60.86;50644.46
1724369842.552;300;60.86;50644.46
1724369842.603;300;61.43;51574.46
1724369842.652;300;61.08;51003.60
1724369842.703;300;62.12;52712.87
1724369842.752;300;62.70;53666.67
1724369842.802;300;62.70;53666.67
1724369842.853;300;62.70;53666.67
1724369842.902;300;62.70;53666.67
1724369842.953;300;57.85;45691.80
1724369843.002;300;60.21;49570.07
1724369843.053;300;57.87;45721.73
1724369843.102;300;60.15;49473.93
1724369843.153;300;60.15;49473.93
1724369843.204;300;60.15;49473.93
1724369843.253;300;60.15;49473.93
1724369843.304;300;60.13;49431.67
1724369843.354;300;60.92;50738.20
1724369843.405;300;60.01;49239.73
1724369843.454;300;61.34;51427.07
1724369843.505;300;61.34;51427.07
1724369843.554;300;58.33;46474.54
1724369843.604;300;58.33;46474.54
1724369843.654;300;58.33;46474.54
1724369843.705;300;58.33;46474.54
1724369843.755;300;62.69;53648.54
1724369843.805;300;61.01;50889.67
1724369843.855;300;58.75;47166.27
1724369843.905;300;63.09;54298.80
1724369843.955;300;59.18;47874.80
1724369844.004;300;55.32;41526.67
1724369844.054;300;55.32;41526.67
1724369844.105;300;55.32;41526.67
1724369844.155;300;56.70;43792.54
1724369844.205;300;59.75;48810.00
1724369844.255;300;61.37;51476.54
1724369844.305;300;60.18;49518.54
1724369844.355;300;59.40;48242.80
1724369844.405;300;62.15;52765.80
1724369844.455;300;61.21;51218.67
1724369844.505;300;61.21;51218.67
1724369844.555;300;61.21;51218.67
1724369844.606;300;61.21;51218.67
1724369844.656;300;60.29;49698.27
1724369844.706;300;60.29;49698.27
1724369844.755;300;60.45;49970.54
1724369844.806;300;61.19;51187.87
1724369844.855;300;58.72;47120.07
1724369844.906;300;60.01;49246.60
1724369844.956;300;60.01;49246.60
1724369845.006;300;60.01;49246.60
1724369845.056;300;60.01;49246.60
1724369845.106;300;60.01;49246.60
1724369845.156;300;61.93;52400.07
1724369845.206;300;59.51;48419.60
1724369845.256;300;58.97;47529.87
1724369845.306;300;62.03;52559.60
1724369845.356;300;61.91;52357.40
1724369845.406;300;60.03;49272.46
1724369845.455;300;59.82;48927.33
1724369845.506;300;59.82;48927.33
1724369845.556;300;59.82;48927.33
1724369845.606;300;59.82;48927.33
1724369845.655;300;59.33;48114.54
1724369845.706;300;62.32;53045.07
1724369845.756;300;61.67;51966.33
1724369845.810;300;60.21;49565.67
1724369845.857;300;62.38;53145.46
1724369845.907;300;59.71;48743.33
1724369845.957;300;59.71;48743.33
1724369846.007;300;59.71;48743.33
1724369846.057;300;62.67;53616.33
1724369846.107;300;57.90;45773.93
1724369846.157;300;61.89;52330.60
1724369846.208;300;61.28;51329.73
1724369846.258;300;59.02;47617.73
1724369846.308;300;59.02;47617.73
1724369846.357;300;59.02;47617.73
1724369846.408;300;59.02;47617.73
1724369846.458;300;61.15;51109.87
1724369846.508;300;59.51;48418.67
1724369846.558;300;60.32;49744.87
1724369846.608;300;60.32;49744.87
1724369846.658;300;60.32;49744.87
1724369846.707;300;60.32;49744.87
1724369846.758;300;60.65;50290.46
1724369846.809;300;58.99;47554.27
1724369846.866;300;61.33;51417.93
1724369846.913;300;61.89;52331.40
1724369846.963;300;61.89;52331.40
1724369847.013;300;61.89;52331.40
1724369847.063;300;61.89;52331.40
1724369847.114;300;61.89;52331.40
1724369847.164;300;60.13;49439.40
1724369847.214;300;61.34;51429.27
1724369847.264;300;59.44;48301.13
1724369847.315;300;63.06;54251.40
1724369847.364;300;63.06;54251.40
1724369847.414;300;63.06;54251.40
1724369847.464;300;62.36;53110.80
1724369847.515;300;63.38;54780.07
1724369847.564;300;59.06;47674.27
1724369847.614;300;57.87;45717.00
1724369847.664;300;60.68;50338.07
1724369847.714;300;60.68;50338.07
1724369847.764;300;60.68;50338.07
1724369847.814;300;60.68;50338.07
1724369847.864;300;60.68;50338.07
1724369847.914;300;60.68;50338.07
1724369847.964;300;60.68;50338.07
1724369848.015;300;60.68;50338.07
1724369848.065;300;60.68;50338.07
1724369848.116;300;60.68;50338.07
1724369848.166;300;60.68;50338.07
1724369848.216;300;60.68;50338.07
1724369848.265;300;60.68;50338.07
1724369848.316;300;60.68;50338.07
1724369848.365;300;60.68;50338.07
1724369848.416;300;60.68;50338.07
1724369848.466;300;60.68;50338.07
1724369848.516;300;60.68;50338.07
1724369848.566;300;60.68;50338.07
1724369848.616;300;60.68;50338.07
1724369848.666;300;60.68;50338.07
1724369848.716;300;60.68;50338.07
1724369848.767;300;60.68;50338.07
1724369848.817;300;60.68;50338.07
1724369848.867;300;60.38;49850.20
1724369848.917;300;59.86;48993.67
1724369848.967;300;62.53;53382.13
1724369849.018;300;62.53;53382.13
1724369849.067;300;61.52;51722.00
1724369849.118;300;61.28;51329.33
1724369849.168;300;60.87;50655.20
1724369849.218;300;58.61;46930.80
1724369849.268;300;61.96;52440.46
1724369849.318;300;62.45;53253.87
1724369849.368;300;56.26;43069.07
1724369849.418;300;56.40;43300.20
1724369849.469;300;60.44;49941.00
1724369849.520;300;58.94;47477.00
1724369849.569;300;58.28;46386.07
1724369849.620;300;58.19;46240.46
1724369849.670;300;61.77;52141.93
1724369849.721;300;61.77;52141.93
1724369849.770;300;61.77;52141.93
1724369849.821;300;61.77;52141.93
1724369849.872;300;61.77;52141.93
1724369849.922;300;61.77;52141.93
1724369849.972;300;61.77;52141.93
1724369850.022;300;61.77;52141.93
1724369850.072;300;61.77;52141.93
1724369850.122;300;61.77;52141.93
1724369850.172;300;61.77;52141.93
1724369850.223;300;61.77;52141.93
1724369850.272;300;60.17;49498.07
1724369850.323;300;59.92;49089.33
1724369850.372;300;61.68;51994.54
1724369850.423;300;60.79;50521.27
1724369850.473;300;59.81;48907.33
1724369850.523;300;61.24;51254.60
1724369850.573;300;60.91;50712.73
1724369850.623;300;62.25;52918.60
1724369850.674;300;61.27;51311.73
1724369850.724;300;58.48;46725.60
1724369850.774;300;60.15;49468.67
1724369850.824;300;61.55;51771.60
1724369850.874;300;58.03;45974.27
1724369850.924;300;61.32;51398.73
1724369850.974;300;56.19;42957.60
1724369851.024;300;56.19;42957.60
1724369851.075;300;56.19;42957.60
1724369851.125;300;56.19;42957.60
1724369851.175;300;59.56;48502.07
1724369851.224;300;62.54;53401.46
1724369851.275;300;63.47;54925.87
1724369851.325;300;57.19;44597.67
1724369851.375;300;61.70;52018.93
1724369851.425;300;63.13;54372.27
1724369851.475;300;60.71;50396.00
1724369851.526;300;61.97;52468.67
1724369851.576;300;60.05;49311.46
1724369851.626;300;59.96;49161.33
1724369851.675;300;59.41;48250.07
1724369851.726;300;59.41;48250.07
1724369851.776;300;59.41;48250.07
1724369851.825;300;59.41;48250.07
1724369851.876;300;61.47;51639.27
1724369851.926;300;61.47;51639.27
1724369851.975;300;59.63;48612.80
1724369852.026;300;60.80;50532.80
1724369852.076;300;61.88;52312.33
1724369852.126;300;62.34;53070.20
1724369852.176;300;58.95;47499.33
1724369852.226;300;60.05;49296.46
1724369852.276;300;60.27;49660.40
1724369852.326;300;60.27;49660.40
1724369852.376;300;60.27;49660.40
1724369852.426;300;60.27;49660.40
1724369852.476;300;60.98;50828.07
1724369852.527;300;61.52;51720.80
1724369852.577;300;61.18;51163.33
1724369852.627;300;60.00;49225.80
1724369852.677;300;59.04;47635.93
1724369852.726;300;60.92;50740.40
1724369852.777;300;57.59;45261.60
1724369852.827;300;57.59;45261.60
1724369852.877;300;57.59;45261.60
1724369852.927;300;59.76;48824.67
1724369852.977;300;60.77;50496.13
1724369853.026;300;60.32;49748.60
1724369853.077;300;59.51;48423.67
1724369853.128;300;61.68;51986.93
1724369853.177;300;60.66;50311.13
1724369853.228;300;60.66;50311.13
1724369853.278;300;60.66;50311.13
1724369853.328;300;59.82;48932.87
1724369853.378;300;58.53;46797.33
1724369853.428;300;62.85;53916.20
1724369864.021;300;61.50;51693.93
1724369864.072;300;60.07;49332.80
1724369864.122;300;59.64;48635.54
1724369864.171;300;59.64;48635.54
1724369864.221;300;59.64;48635.54
1724369864.272;300;59.64;48635.54
1724369864.325;300;58.56;46854.93
1724369864.371;300;56.99;44270.13
1724369864.422;300;60.11;49409.60
1724369864.472;300;60.11;49409.60
1724369864.522;300;60.11;49409.60
1724369864.572;300;59.67;48686.80
1724369864.622;300;59.92;49085.27
1724369864.672;300;58.84;47318.73
1724369864.722;300;58.84;47318.73
1724369864.773;300;58.84;47318.73
1724369864.822;300;59.47;48344.73
1724369864.873;300;58.04;46004.13
1724369864.923;300;59.02;47610.07
1724369864.973;300;61.74;52080.87
1724369865.023;300;61.74;52080.87
1724369865.073;300;61.74;52080.87
1724369865.123;300;62.03;52560.87
1724369865.173;300;61.16;51125.00
1724369865.223;300;59.90;49064.20
1724369865.274;300;61.18;51170.60
1724369865.324;300;61.18;51170.60
1724369865.374;300;61.18;51170.60
1724369865.425;300;60.13;49442.67
1724369865.475;300;58.93;47456.54
1724369865.524;300;61.64;51914.13
1724369865.575;300;61.64;51914.13
1724369865.624;300;61.64;51914.13
1724369865.675;300;61.64;51914.13
1724369865.725;300;58.99;47557.33
1724369865.774;300;57.46;45044.93
1724369865.825;300;58.45;46663.67
1724369865.875;300;58.45;46663.67
1724369865.926;300;58.45;46663.67
1724369865.976;300;58.45;46663.67
1724369866.025;300;60.38;49843.60
1724369866.076;300;63.10;54326.27
1724369866.125;300;61.55;51768.33
1724369866.176;300;61.83;52234.27
1724369866.227;300;61.83;52234.27
1724369866.277;300;61.83;52234.27
1724369866.327;300;61.83;52234.27
1724369866.380;300;60.60;50209.00
1724369866.427;300;60.61;50231.60
1724369866.476;300;61.35;51435.33
1724369866.526;300;59.76;48819.87
1724369866.577;300;59.76;48819.87
1724369866.627;300;59.76;48819.87
1724369866.678;300;59.76;48819.87
1724369866.727;300;63.20;54483.80
1724369866.777;300;60.97;50825.67
1724369866.827;300;60.60;50213.46
1724369866.878;300;62.73;53715.54
1724369866.928;300;61.33;51412.20
1724369866.977;300;60.31;49729.54
1724369867.028;300;60.31;49729.54
1724369867.078;300;60.31;49729.54
1724369867.127;300;60.31;49729.54
1724369867.178;300;61.12;51062.93
1724369867.228;300;59.76;48830.27
1724369867.278;300;62.46;53266.93
1724369867.327;300;61.11;51042.07
1724369867.378;300;61.27;51316.33
1724369867.428;300;61.27;51316.33
1724369867.478;300;61.27;51316.33
1724369867.527;300;61.74;52084.20
1724369867.578;300;60.60;50209.80
1724369867.628;300;60.68;50344.40
1724369867.678;300;63.77;55417.60
1724369867.728;300;63.77;55417.60
1724369867.778;300;63.77;55417.60
1724369867.828;300;60.41;49889.33
1724369867.878;300;62.87;53948.54
1724369867.928;300;55.68;42115.80
1724369867.978;300;55.68;42115.80
1724369868.028;300;55.68;42115.80
1724369868.078;300;58.53;46804.93
1724369868.129;300;60.46;49972.07
1724369868.179;300;59.71;48746.93
1724369868.229;300;59.71;48746.93
1724369868.279;300;59.71;48746.93
1724369868.329;300;59.71;48746.93
1724369868.379;300;59.77;48842.40
1724369868.429;300;58.27;46382.33
1724369868.480;300;58.27;46382.33
1724369868.530;300;58.27;46382.33
1724369868.580;300;59.22;47946.00
1724369868.630;300;61.89;52337.13
1724369868.681;300;61.67;51965.73
1724369868.731;300;61.67;51965.73
1724369868.781;300;61.67;51965.73
1724369868.831;300;60.36;49806.54
1724369868.881;300;60.56;50145.40
1724369868.931;300;61.58;51828.07
1724369868.982;300;61.58;51828.07
1724369869.031;300;61.58;51828.07
1724369869.081;300;61.58;51828.07
1724369869.132;300;61.79;52163.87
1724369869.181;300;61.88;52321.46
1724369869.231;300;58.75;47161.93
1724369869.281;300;58.75;47161.93
1724369869.331;300;58.75;47161.93
1724369869.381;300;59.96;49157.60
1724369869.431;300;59.71;48747.73
1724369869.482;300;60.04;49292.46
1724369869.531;300;62.54;53396.00
1724369869.582;300;62.54;53396.00
1724369869.632;300;62.54;53396.00
1724369869.683;300;62.54;53396.00
1724369869.734;300;62.54;53396.00
1724369869.784;300;62.95;54080.20
1724369869.834;300;61.76;52125.13
1724369869.885;300;60.60;50209.33
1724369869.934;300;61.90;52355.67
1724369869.985;300;61.90;52355.67
1724369870.034;300;61.90;52355.67
1724369870.084;300;59.67;48672.27
1724369870.134;300;60.79;50528.07
1724369870.184;300;58.72;47114.40
1724369870.234;300;60.32;49745.67
1724369870.284;300;60.32;49745.67
1724369870.334;300;60.32;49745.67
1724369870.384;300;60.32;49745.67
1724369870.435;300;61.04;50937.00
1724369870.485;300;58.64;46987.80
1724369870.534;300;59.05;47661.73
1724369870.584;300;59.05;47661.73
1724369870.634;300;59.05;47661.73
1724369870.684;300;59.32;48095.67
1724369870.735;300;58.37;46540.07
1724369870.785;300;58.69;47059.60
1724369870.835;300;59.24;47968.13
1724369870.885;300;59.24;47968.13
1724369870.935;300;59.24;47968.13
1724369870.984;300;59.24;47968.13
1724369871.035;300;60.39;49858.00
1724369871.084;300;58.01;45940.60
1724369871.134;300;58.62;46951.80
1724369871.184;300;61.17;51140.40
1724369871.234;300;60.56;50144.33
1724369871.284;300;60.56;50144.33
1724369871.334;300;60.56;50144.33
1724369871.386;300;62.42;53205.80
1724369871.436;300;56.06;42740.00
1724369871.485;300;62.24;52902.46
1724369871.536;300;58.78;47221.07
1724369871.585;300;58.78;47221.07
1724369871.637;300;58.78;47221.07
1724369871.686;300;58.78;47221.07
1724369871.736;300;60.14;49453.67
1724369871.787;300;60.57;50163.33
1724369871.837;300;60.05;49309.67
1724369871.887;300;60.44;49950.33
1724369871.936;300;61.76;52112.13
1724369871.988;300;61.76;52112.13
1724369872.037;300;61.76;52112.13
1724369872.087;300;61.76;52112.13
1724369872.138;300;61.76;52112.13
1724369872.188;300;61.77;52130.00
1724369872.238;300;59.84;48966.20
1724369872.288;300;60.78;50499.33
1724369872.338;300;60.81;50561.87
1724369872.390;300;58.63;46970.13
1724369872.440;300;58.42;46629.73
1724369872.489;300;58.42;46629.73
1724369872.540;300;58.42;46629.73
1724369872.589;300;60.01;49232.13
1724369872.640;300;59.34;48134.13
1724369872.690;300;60.20;49556.27
1724369872.739;300;62.26;52935.00
1724369872.790;300;61.31;51372.20
1724369872.840;300;61.31;51372.20
1724369872.890;300;61.31;51372.20
1724369872.940;300;61.31;51372.20
1724369872.991;300;62.83;53881.93
1724369873.040;300;59.82;48919.00
1724369873.090;300;61.03;50919.54
1724369873.141;300;61.52;51723.80
1724369873.191;300;61.52;51723.80
1724369873.242;300;61.52;51723.80
1724369873.291;300;61.52;51723.80
1724369873.341;300;59.73;48771.20
1724369873.390;300;64.48;56589.73
1724369873.441;300;59.14;47805.00
1724369980.539;100;59.48;48370.93
1724369980.590;100;56.79;43932.93
1724369980.643;100;62.33;53050.67
1724369980.690;100;59.91;49080.13
1724369980.740;100;61.73;52071.40
1724369980.790;100;61.73;52071.40
1724369980.841;100;61.73;52071.40
1724369980.891;100;61.58;51816.67
1724369980.941;100;58.64;46983.33
1724369980.990;100;61.38;51491.67
1724369981.042;100;57.89;45755.73
1724369981.092;100;57.89;45755.73
1724369981.141;100;57.89;45755.73
1724369981.191;100;56.69;43777.87
1724369981.241;100;59.97;49172.40
1724369981.292;100;56.25;43054.93
1724369981.341;100;58.32;46453.73
1724369981.392;100;58.32;46453.73
1724369981.443;100;58.32;46453.73
1724369981.493;100;61.62;51882.67
1724369981.543;100;58.92;47441.27
1724369981.593;100;57.22;44654.33
1724369981.643;100;58.84;47305.33
1724369981.693;100;58.84;47305.33
1724369981.743;100;58.84;47305.33
1724369981.793;100;61.28;51327.40
1724369981.844;100;58.58;46891.40
1724369981.893;100;58.58;46891.40
1724369981.943;100;58.94;47472.07
1724369981.993;100;58.94;47472.07
1724369982.043;100;58.94;47472.07
1724369982.093;100;58.94;47472.07
1724369982.143;100;60.47;49997.27
1724369982.194;100;60.48;50017.20
1724369982.244;100;61.64;51927.87
1724369982.293;100;61.64;51927.87
1724369982.344;100;61.64;51927.87
1724369982.394;100;61.64;51927.87
1724369982.445;100;60.26;49650.46
1724369982.494;100;59.80;48895.60
1724369982.545;100;57.25;44704.60
1724369982.595;100;57.25;44704.60
1724369982.645;100;57.25;44704.60
1724369982.695;100;57.25;44704.60
1724369982.744;100;62.08;52640.80
1724369982.795;100;61.15;51116.67
1724369982.845;100;62.33;53057.07
1724369982.896;100;61.95;52424.40
1724369982.945;100;62.60;53505.27
1724369982.996;100;62.60;53505.27
1724369983.045;100;62.60;53505.27
1724369983.096;100;62.60;53505.27
1724369983.146;100;62.79;53808.00
1724369983.195;100;57.47;45051.46
1724369983.245;100;58.85;47337.46
1724369983.295;100;63.17;54435.87
1724369983.347;100;63.17;54435.87
1724369983.398;100;63.17;54435.87
1724369983.447;100;63.17;54435.87
1724369983.497;100;58.97;47525.87
1724369983.547;100;59.77;48845.33
1724369983.598;100;62.79;53815.93
1724369983.647;100;59.25;47991.33
1724369983.697;100;62.14;52742.07
1724369983.748;100;62.14;52742.07
1724369983.798;100;62.14;52742.07
1724369983.848;100;62.14;52742.07
1724369983.898;100;59.53;48453.73
1724369983.948;100;59.98;49184.20
1724369983.998;100;62.77;53773.20
1724369984.048;100;57.22;44649.13
1724369984.098;100;57.22;44649.13
1724369984.148;100;57.22;44649.13
1724369984.199;100;60.54;50118.87
1724369984.248;100;60.19;49539.67
1724369984.298;100;58.17;46211.07
1724369984.348;100;59.11;47757.00
1724369984.398;100;59.11;47757.00
1724369984.448;100;59.11;47757.00
1724369984.498;100;61.34;51424.40
1724369984.548;100;60.92;50733.00
1724369984.598;100;62.22;52875.60
1724369984.648;100;64.70;56962.67
1724369984.698;100;64.70;56962.67
1724369984.749;100;64.70;56962.67
1724369984.800;100;62.30;53001.07
1724369984.849;100;64.14;56041.07
1724369984.900;100;62.28;52971.40
1724369984.950;100;59.24;47973.40
1724369985.000;100;59.24;47973.40
1724369985.050;100;59.24;47973.40
1724369985.100;100;59.16;47834.07
1724369985.149;100;59.81;48908.60
1724369985.200;100;58.63;46973.33
1724369985.249;100;58.63;46973.33
1724369985.300;100;58.63;46973.33
1724369985.350;100;58.63;46973.33
1724369985.400;100;58.63;46973.33
1724369985.449;100;60.56;50147.33
1724369985.500;100;60.56;50147.33
1724369985.550;100;58.96;47515.93
1724369985.600;100;58.96;47515.93
1724369985.651;100;58.96;47515.93
1724369985.701;100;58.96;47515.93
1724369985.751;100;60.41;49903.87
1724369985.812;100;57.58;45246.00
1724369985.858;100;62.20;52839.87
1724369985.908;100;62.19;52820.33
1724369985.957;100;57.88;45734.40
1724369986.008;100;57.88;45734.40
1724369986.057;100;57.88;45734.40
1724369986.108;100;61.63;51904.80
1724369986.157;100;59.71;48746.60
1724369986.207;100;61.83;52237.73
1724369986.258;100;61.91;52372.60
1724369986.307;100;61.91;52372.60
1724369986.358;100;61.91;52372.60
1724369986.409;100;59.77;48843.87
1724369986.459;100;63.00;54166.54
1724369986.508;100;63.02;54196.46
1724369986.558;100;60.46;49981.00
1724369986.608;100;60.46;49981.00
1724369986.658;100;60.46;49981.00
1724369986.709;100;59.42;48263.67
1724369986.758;100;60.62;50248.20
1724369986.809;100;61.75;52104.13
1724369986.859;100;61.30;51362.40
1724369986.909;100;61.30;51362.40
1724369986.960;100;61.30;51362.40
1724369987.009;100;61.30;51362.40
1724369987.059;100;59.92;49091.87
1724369987.109;100;59.92;49091.87
1724369987.159;100;59.90;49061.20
1724369987.209;100;63.68;55270.73
1724369987.259;100;61.57;51797.93
1724369987.309;100;61.57;51797.93
1724369987.359;100;61.57;51797.93
1724369987.409;100;61.57;51797.93
1724369987.459;100;60.05;49298.67
1724369987.509;100;61.64;51916.60
1724369987.560;100;59.77;48840.46
1724369987.610;100;60.67;50324.46
1724369987.660;100;61.43;51573.73
1724369987.711;100;61.43;51573.73
1724369987.760;100;61.43;51573.73
1724369987.811;100;61.43;51573.73
1724369987.860;100;61.74;52078.54
1724369987.910;100;58.84;47307.87
1724369987.961;100;63.51;54998.93
1724369988.011;100;62.65;53588.80
1724369988.061;100;62.65;53588.80
1724369988.111;100;62.65;53588.80
1724369988.161;100;62.65;53588.80
1724369988.211;100;62.15;52762.07
1724369988.261;100;59.45;48314.20
1724369988.311;100;62.00;52512.33
1724369988.362;100;62.10;52682.80
1724369988.412;100;62.10;52682.80
1724369988.462;100;62.10;52682.80
1724369988.523;100;62.10;52682.80
1724369988.568;100;59.10;47744.07
1724369988.618;100;59.65;48645.00
1724369988.668;100;59.81;48905.27
1724369988.718;100;59.81;48905.27
1724369988.768;100;59.81;48905.27
1724369988.819;100;59.81;48905.27
1724369988.868;100;59.18;47878.33
1724369988.919;100;59.68;48700.33
1724369988.968;100;59.78;48862.13
1724369989.019;100;58.53;46808.33
1724369989.069;100;58.53;46808.33
1724369989.118;100;58.53;46808.33
1724369989.168;100;58.53;46808.33
1724369989.218;100;59.84;48955.40
1724369989.269;100;61.44;51587.87
1724369989.318;100;59.84;48951.67
1724369989.368;100;59.84;48951.67
1724369989.419;100;59.84;48951.67
1724369989.469;100;59.84;48951.67
1724369989.519;100;60.76;50467.87
1724369989.569;100;60.92;50730.87
1724369989.621;100;63.08;54291.20
1724369989.670;100;63.08;54291.20
1724369989.721;100;63.08;54291.20
1724369989.771;100;63.08;54291.20
1724369989.821;100;62.36;53101.13
1724369989.872;100;61.42;51552.00
1724369989.922;100;62.88;53955.87
1724369989.972;100;59.37;48187.27
1724369990.022;100;59.37;48187.27
1724369990.073;100;59.37;48187.27
1724369990.122;100;59.37;48187.27
1724369990.172;100;61.41;51538.40
1724369990.222;100;61.73;52066.46
1724369990.272;100;61.00;50862.20
1724370002.186;100;60.35;49790.33
1724370002.236;100;58.94;47471.60
1724370002.286;100;64.09;55943.93
1724370002.335;100;59.48;48362.87
1724370002.386;100;59.48;48362.87
1724370002.436;100;59.48;48362.87
1724370002.486;100;59.48;48362.87
1724370002.536;100;56.16;42901.73
1724370002.586;100;62.36;53108.93
1724370002.636;100;58.76;47180.67
1724370002.686;100;58.76;47180.67
1724370002.735;100;58.76;47180.67
1724370002.786;100;58.76;47180.67
1724370002.836;100;60.33;49762.60
1724370002.886;100;63.50;54989.20
1724370002.936;100;58.56;46852.07
1724370002.986;100;59.06;47677.46
1724370003.036;100;59.06;47677.46
1724370003.086;100;59.06;47677.46
1724370003.136;100;59.06;47677.46
1724370003.186;100;59.06;47677.46
1724370003.236;100;61.45;51604.27
1724370003.287;100;58.92;47451.93
1724370003.337;100;61.57;51799.33
1724370003.387;100;59.38;48200.67
1724370003.437;100;59.38;48200.67
1724370003.488;100;59.38;48200.67
1724370003.537;100;59.38;48200.67
1724370003.587;100;61.28;51330.67
1724370003.637;100;63.24;54546.60
1724370003.687;100;61.42;51556.87
1724370003.737;100;59.05;47662.46
1724370003.787;100;59.05;47662.46
1724370003.838;100;59.05;47662.46
1724370003.887;100;59.05;47662.46
1724370003.938;100;60.65;50289.07
1724370003.988;100;62.71;53678.93
1724370004.038;100;62.71;53678.93
1724370004.088;100;59.97;49164.54
1724370004.138;100;59.97;49164.54
1724370004.188;100;59.97;49164.54
1724370004.238;100;59.97;49164.54
1724370004.288;100;59.60;48564.93
1724370004.338;100;60.81;50550.33
1724370004.388;100;61.05;50947.67
1724370004.438;100;60.79;50521.27
1724370004.488;100;60.79;50521.27
1724370004.539;100;60.79;50521.27
1724370004.588;100;60.79;50521.27
1724370004.638;100;58.70;47076.27
1724370004.688;100;60.89;50681.73
1724370004.738;100;59.79;48880.20
1724370004.788;100;59.67;48671.13
1724370004.838;100;59.67;48671.13
1724370004.888;100;59.67;48671.13
1724370004.938;100;62.06;52611.60
1724370004.989;100;59.86;48992.73
1724370005.039;100;59.60;48560.00
1724370005.089;100;59.60;48560.00
1724370005.139;100;59.60;48560.00
1724370005.188;100;59.60;48560.00
1724370005.239;100;62.18;52802.87
1724370005.288;100;61.18;51165.27
1724370005.338;100;59.93;49108.13
1724370005.389;100;61.22;51235.00
1724370005.438;100;61.22;51235.00
1724370005.488;100;61.22;51235.00
1724370005.538;100;61.22;51235.00
1724370005.589;100;60.06;49316.07
1724370005.638;100;59.40;48231.00
1724370005.688;100;62.76;53757.20
1724370005.739;100;63.16;54426.40
1724370005.789;100;60.32;49742.46
1724370005.838;100;60.32;49742.46
1724370005.889;100;60.32;49742.46
1724370005.938;100;60.32;49742.46
1724370005.989;100;62.51;53349.40
1724370006.039;100;61.01;50882.73
1724370006.090;100;58.42;46621.00
1724370006.139;100;57.90;45766.20
1724370006.190;100;57.90;45766.20
1724370006.240;100;57.90;45766.20
1724370006.290;100;57.90;45766.20
1724370006.340;100;59.29;48049.60
1724370006.390;100;63.00;54160.54
1724370006.439;100;62.82;53857.67
1724370006.490;100;59.90;49058.80
1724370006.540;100;59.90;49058.80
1724370006.590;100;59.90;49058.80
1724370006.640;100;59.30;48069.40
1724370006.690;100;56.92;44159.93
1724370006.740;100;63.00;54162.73
1724370006.790;100;60.91;50717.20
1724370006.841;100;60.91;50717.20
1724370006.891;100;60.91;50717.20
1724370006.940;100;60.91;50717.20
1724370006.991;100;61.92;52380.93
1724370007.040;100;60.62;50236.07
1724370007.091;100;58.88;47372.93
1724370007.141;100;61.25;51285.73
1724370007.191;100;63.16;54420.07
1724370007.241;100;63.16;54420.07
1724370007.291;100;63.16;54420.07
1724370007.341;100;63.16;54420.07
1724370007.390;100;63.16;54420.07
1724370007.441;100;58.96;47509.33
1724370007.491;100;59.59;48541.93
1724370007.541;100;61.66;51947.73
1724370007.591;100;62.00;52504.80
1724370007.641;100;61.23;51242.87
1724370007.691;100;61.23;51242.87
1724370007.741;100;61.23;51242.87
1724370007.791;100;61.23;51242.87
1724370007.841;100;60.50;50042.07
1724370007.891;100;59.67;48674.80
1724370007.941;100;59.58;48534.33
1724370007.991;100;61.35;51438.87
1724370008.042;100;61.26;51300.13
1724370008.092;100;63.20;54493.80
1724370008.142;100;63.20;54493.80
1724370008.192;100;63.20;54493.80
1724370008.242;100;60.74;50435.00
1724370008.291;100;58.83;47292.27
1724370008.341;100;60.17;49503.27
1724370008.392;100;58.13;46145.40
1724370008.443;100;58.13;46145.40
1724370008.492;100;58.13;46145.40
1724370008.542;100;60.51;50064.60
1724370008.592;100;59.81;48910.93
1724370008.641;100;61.46;51616.27
1724370008.692;100;61.46;51616.27
1724370008.742;100;61.46;51616.27
1724370008.792;100;61.46;51616.27
1724370008.842;100;60.65;50291.13
1724370008.893;100;62.15;52758.67
1724370008.943;100;61.99;52495.93
1724370008.993;100;62.00;52507.00
1724370009.043;100;62.00;52507.00
1724370009.093;100;62.00;52507.00
1724370009.142;100;60.86;50642.54
1724370009.192;100;63.12;54357.67
1724370009.243;100;62.29;52985.20
1724370009.294;100;62.24;52904.40
1724370009.345;100;62.24;52904.40
1724370009.394;100;62.24;52904.40
1724370009.445;100;62.24;52904.40
1724370009.495;100;62.24;52904.40
1724370009.544;100;62.24;52904.40
1724370009.595;100;58.25;46336.54
1724370009.645;100;58.25;46336.54
1724370009.695;100;62.43;53219.67
1724370009.745;100;62.43;53219.67
1724370009.795;100;61.74;52082.46
1724370009.845;100;61.74;52082.46
1724370009.896;100;61.74;52082.46
1724370009.946;100;61.74;52082.46
1724370009.996;100;61.74;52082.46
1724370010.046;100;61.47;51637.00
1724370010.096;100;63.17;54443.60
1724370010.146;100;60.91;50715.87
1724370010.196;100;55.32;41526.93
1724370010.246;100;60.84;50609.27
1724370010.296;100;61.00;50868.54
1724370010.346;100;61.00;50868.54
1724370010.396;100;61.00;50868.54
1724370010.446;100;61.34;51422.46
1724370010.496;100;60.33;49769.20
1724370010.546;100;59.72;48758.13
1724370010.596;100;57.63;45330.07
1724370010.646;100;57.63;45330.07
1724370010.696;100;57.63;45330.07
1724370010.746;100;57.63;45330.07
1724370010.796;100;59.59;48545.20
1724370010.846;100;62.35;53087.93
1724370010.896;100;61.25;51274.60
1724370010.946;100;57.98;45891.13
1724370010.996;100;57.98;45891.13
1724370011.046;100;57.98;45891.13
1724370011.096;100;57.98;45891.13
1724370011.146;100;61.41;51539.27
1724370011.196;100;59.66;48655.20
1724370011.246;100;64.14;56030.00
1724370011.296;100;60.83;50580.00
1724370011.346;100;60.83;50580.00
1724370011.396;100;60.83;50580.00
1724370011.446;100;60.83;50580.00
1724370011.496;100;60.83;50580.00
1724370011.546;100;63.13;54373.40
1724370011.597;100;58.97;47522.33
1724370011.647;100;63.00;54158.13
1724370011.697;100;59.08;47714.73
1724370011.748;100;59.08;47714.73
1724370011.797;100;59.08;47714.73
1724370011.847;100;59.08;47714.73
1724370011.898;100;61.61;51878.54
1724370011.947;100;60.30;49708.60
1724370011.998;100;61.04;50926.67
1724370012.048;100;63.23;54532.60
1724370012.098;100;58.59;46908.20
1724370012.147;100;58.59;46908.20
1724370012.198;100;58.59;46908.20
1724370012.249;100;61.56;51785.54
1724370012.299;100;60.69;50355.80
1724370012.349;100;62.24;52910.40
1724370012.399;100;62.16;52782.73
1724370012.449;100;62.16;52782.73
1724370012.499;100;62.16;52782.73
1724370012.549;100;62.16;52782.73
1724370012.599;100;59.45;48314.87
1724370012.649;100;62.97;54105.27
1724370012.698;100;60.01;49231.33
1724370012.748;100;60.09;49364.80
1724370024.381;100;60.19;49542.40
1724370024.431;100;59.63;48606.40
1724370024.481;100;61.81;52204.20
1724370024.531;100;62.48;53303.93
1724370024.580;100;60.49;50035.27
1724370024.631;100;60.49;50035.27
1724370024.681;100;60.49;50035.27
1724370024.731;100;60.08;49351.20
1724370024.780;100;62.46;53268.93
1724370024.831;100;65.00;57449.20
1724370024.882;100;62.46;53278.00
1724370024.932;100;62.46;53278.00
1724370024.982;100;62.46;53278.00
1724370025.031;100;62.46;53278.00
1724370025.082;100;61.01;50889.20
1724370025.133;100;61.29;51348.80
1724370025.182;100;59.44;48306.54
1724370025.233;100;58.54;46818.87
1724370025.283;100;58.54;46818.87
1724370025.333;100;58.54;46818.87
1724370025.383;100;58.54;46818.87
1724370025.433;100;60.87;50649.13
1724370025.484;100;59.73;48777.73
1724370025.534;100;58.76;47175.07
1724370025.585;100;60.17;49501.46
1724370025.634;100;60.17;49501.46
1724370025.685;100;60.17;49501.46
1724370025.734;100;60.17;49501.46
1724370025.784;100;61.43;51576.33
1724370025.834;100;61.43;51576.33
1724370025.884;100;57.87;45717.33
1724370025.934;100;56.79;43941.54
1724370025.986;100;56.79;43941.54
1724370026.036;100;56.79;43941.54
1724370026.086;100;56.79;43941.54
1724370026.136;100;62.88;53960.13
1724370026.186;100;60.21;49564.27
1724370026.236;100;59.45;48321.13
1724370026.286;100;61.06;50970.07
1724370026.337;100;61.06;50970.07
1724370026.386;100;61.06;50970.07
1724370026.436;100;58.81;47260.67
1724370026.486;100;58.07;46043.07
1724370026.536;100;63.15;54397.67
1724370026.586;100;59.31;48087.46
1724370026.636;100;59.31;48087.46
1724370026.686;100;59.31;48087.46
1724370026.737;100;59.31;48087.46
1724370026.786;100;65.00;57449.20
1724370026.837;100;65.00;57449.20
1724370026.887;100;59.78;48853.20
1724370026.937;100;59.78;48853.20
1724370026.986;100;59.78;48853.20
1724370027.037;100;59.78;48853.20
1724370027.087;100;59.78;48853.20
1724370027.137;100;59.78;48853.20
1724370027.187;100;60.50;50046.33
1724370027.237;100;60.50;50046.33
1724370027.288;100;63.30;54644.20
1724370027.338;100;59.94;49116.80
1724370027.387;100;59.66;48656.60
1724370027.438;100;59.66;48656.60
1724370027.488;100;59.66;48656.60
1724370027.538;100;59.66;48656.60
1724370027.588;100;57.44;45005.80
1724370027.637;100;58.84;47319.60
1724370027.691;100;61.02;50901.40
1724370027.739;100;58.20;46263.93
1724370027.788;100;59.85;48980.00
1724370027.838;100;58.36;46519.40
1724370027.888;100;58.36;46519.40
1724370027.941;100;58.36;46519.40
1724370027.988;100;58.36;46519.40
1724370028.039;100;61.88;52318.40
1724370028.088;100;61.39;51508.33
1724370028.139;100;59.90;49058.93
1724370028.189;100;61.85;52263.60
1724370028.240;100;61.85;52263.60
1724370028.290;100;61.85;52263.60
1724370028.340;100;61.85;52263.60
1724370028.390;100;61.53;51734.93
1724370028.440;100;58.79;47233.46
1724370028.492;100;62.04;52571.87
1724370028.541;100;58.15;46175.80
1724370028.591;100;63.29;54631.67
1724370028.641;100;63.29;54631.67
1724370028.690;100;63.29;54631.67
1724370028.740;100;57.91;45781.54
1724370028.791;100;61.33;51406.40
1724370028.841;100;61.40;51524.80
1724370028.891;100;61.14;51091.27
1724370028.941;100;61.14;51091.27
1724370028.991;100;61.14;51091.27
1724370029.041;100;61.14;51091.27
1724370029.091;100;59.29;48060.60
1724370029.141;100;61.03;50914.07
1724370029.191;100;61.55;51771.13
1724370029.241;100;56.84;44019.87
1724370029.291;100;56.84;44019.87
1724370029.342;100;56.84;44019.87
1724370029.391;100;56.84;44019.87
1724370029.441;100;57.25;44689.67
1724370029.491;100;61.90;52350.27
1724370029.542;100;62.77;53771.87
1724370029.597;100;61.95;52431.00
1724370029.643;100;61.43;51580.07
1724370029.693;100;61.43;51580.07
1724370029.743;100;61.43;51580.07
1724370029.793;100;60.36;49822.40
1724370029.844;100;60.82;50570.54
1724370029.894;100;61.06;50972.00
1724370029.944;100;60.89;50690.93
1724370029.995;100;62.73;53706.80
1724370030.044;100;62.73;53706.80
1724370030.095;100;62.73;53706.80
1724370030.145;100;60.59;50197.33
1724370030.194;100;62.26;52943.20
1724370030.246;100;57.41;44955.93
1724370030.296;100;63.81;55490.80
1724370030.346;100;63.81;55490.80
1724370030.396;100;63.81;55490.80
1724370030.446;100;63.26;54582.27
1724370030.496;100;62.92;54028.73
1724370030.547;100;60.02;49249.67
1724370030.596;100;61.95;52431.27
1724370030.647;100;61.95;52431.27
1724370030.696;100;61.95;52431.27
1724370030.747;100;64.68;56919.13
1724370030.797;100;62.57;53448.67
1724370030.847;100;62.37;53118.27
1724370030.898;100;59.93;49111.13
1724370030.947;100;59.93;49111.13
1724370030.998;100;59.93;49111.13
1724370031.048;100;59.93;49111.13
1724370031.098;100;63.09;54304.33
1724370031.148;100;59.81;48902.33
1724370031.198;100;59.55;48479.73
1724370031.248;100;61.89;52339.13
1724370031.299;100;61.89;52339.13
1724370031.349;100;61.89;52339.13
1724370031.399;100;61.89;52339.13
1724370031.449;100;61.19;51184.33
1724370031.500;100;60.41;49889.00
1724370031.550;100;62.94;54056.80
1724370031.600;100;62.20;52847.60
1724370031.650;100;62.20;52847.60
1724370031.700;100;62.20;52847.60
1724370031.751;100;58.74;47142.80
1724370031.801;100;60.70;50366.73
1724370031.850;100;62.34;53071.73
1724370031.901;100;62.65;53584.93
1724370031.955;100;62.65;53584.93
1724370032.002;100;60.13;49430.80
1724370032.052;100;60.13;49430.80
1724370032.101;100;60.13;49430.80
1724370032.152;100;59.30;48063.67
1724370032.201;100;58.51;46765.00
1724370032.252;100;63.53;55036.93
1724370032.301;100;59.96;49163.80
1724370032.351;100;59.96;49163.80
1724370032.402;100;59.96;49163.80
1724370032.452;100;59.96;49163.80
1724370032.502;100;60.64;50277.13
1724370032.552;100;60.68;50335.20
1724370032.603;100;60.14;49460.13
1724370032.653;100;60.14;49460.13
1724370032.703;100;60.14;49460.13
1724370032.753;100;60.14;49460.13
1724370032.803;100;63.40;54815.40
1724370032.853;100;63.51;54995.00
1724370032.903;100;60.83;50590.67
1724370032.953;100;61.03;50920.80
1724370033.004;100;61.03;50920.80
1724370033.054;100;61.03;50920.80
1724370033.104;100;61.03;50920.80
1724370033.155;100;58.95;47490.13
1724370033.205;100;59.75;48818.20
1724370033.255;100;61.65;51933.80
1724370033.304;100;60.33;49765.07
1724370033.355;100;58.06;46033.20
1724370033.405;100;58.11;46105.93
1724370033.456;100;58.11;46105.93
1724370033.506;100;58.11;46105.93
1724370033.557;100;61.62;51886.87
1724370033.607;100;61.40;51527.93
1724370033.658;100;59.74;48786.33
1724370033.708;100;61.40;51527.40
1724370033.757;100;61.40;51527.40
1724370033.807;100;61.40;51527.40
1724370033.857;100;59.55;48480.73
1724370033.907;100;62.68;53633.07
1724370033.958;100;62.79;53815.40
1724370034.007;100;61.70;52027.07
1724370034.057;100;61.70;52027.07
1724370034.107;100;61.70;52027.07
1724370034.158;100;60.07;49329.87
1724370034.207;100;60.89;50687.93
1724370034.257;100;60.89;50687.93
1724370034.307;100;60.89;50687.93
1724370034.358;100;60.89;50687.93
1724370034.407;100;60.89;50687.93
1724370034.458;100;58.40;46586.80
1724370034.508;100;61.75;52108.54
1724370034.558;100;63.64;55215.54
