UnixTimestamp;Microseconds;MilliAmpere;BaseValue
1737367600.554;108;10.00;39087.20
1737367600.602;108;10.00;39087.20
1737367600.652;108;10.00;39087.20
1737367600.702;114;10.00;42449.93
1737367600.753;114;10.00;42449.93
1737367600.802;114;10.00;42449.93
1737367600.852;115;10.00;42761.20
1737367600.902;115;10.00;42761.20
1737367600.952;115;10.00;42761.20
1737367601.003;110;10.00;40207.20
1737367601.054;110;10.00;40207.20
1737367601.103;110;10.00;40207.20
1737367601.154;126;10.00;48878.13
1737367601.204;126;10.00;48878.13
1737367601.254;126;10.00;48878.13
1737367601.303;106;10.00;37718.46
1737367601.353;110;10.00;40033.67
1737367601.404;110;10.00;40033.67
1737367601.454;110;10.00;40033.67
1737367601.503;119;10.00;44747.87
1737367601.554;119;10.00;44747.87
1737367601.604;119;10.00;44747.87
1737367601.655;111;10.00;40783.13
1737367601.704;111;10.00;40783.13
1737367601.754;111;10.00;40783.13
1737367601.805;116;10.00;43217.87
1737367601.854;116;10.00;43217.87
1737367601.904;116;10.00;43217.87
1737367601.954;111;10.00;40467.93
1737367602.005;121;10.00;45964.73
1737367602.054;121;10.00;45964.73
1737367602.105;114;10.00;42405.00
1737367602.155;118;10.00;44397.40
1737367602.205;118;10.00;44397.40
1737367602.255;118;10.00;44397.40
1737367602.304;116;10.00;43159.46
1737367602.354;116;10.00;43159.46
1737367602.404;116;10.00;43159.46
1737367602.455;122;10.00;46772.20
1737367602.505;122;10.00;46772.20
1737367602.555;122;10.00;46772.20
1737367602.605;111;10.00;40873.93
1737367602.656;111;10.00;40873.93
1737367602.706;111;10.00;40873.93
1737367602.756;115;10.00;42926.20
1737367602.806;115;10.00;42926.20
1737367602.856;115;10.00;42926.20
1737367602.905;118;10.00;44694.33
1737367602.956;118;10.00;44694.33
1737367603.006;118;10.00;44694.33
1737367603.056;115;10.00;42545.73
1737367603.106;110;10.00;40318.27
1737367603.156;110;10.00;40318.27
1737367603.206;110;10.00;40318.27
1737367603.257;106;10.00;37654.13
1737367603.307;116;10.00;43161.93
1737367603.357;116;10.00;43161.93
1737367603.407;114;10.00;42306.40
1737367603.458;112;10.00;40994.67
1737367603.509;115;10.00;42598.80
1737367603.558;115;10.00;42598.80
1737367603.609;108;10.00;39033.73
1737367603.659;108;10.00;38811.93
1737367603.709;113;10.00;41624.13
1737367603.759;113;10.00;41624.13
1737367603.809;117;10.00;43823.00
1737367603.860;108;10.00;39021.54
1737367603.910;108;10.00;39021.54
1737367603.960;108;10.00;39021.54
1737367604.010;107;10.00;38636.40
1737367614.658;110;10.00;40057.07
1737367614.708;110;10.00;40057.07
1737367614.758;110;10.00;40057.07
1737367614.808;108;10.00;38742.67
1737367614.858;106;10.00;37975.40
1737367614.908;106;10.00;37975.40
1737367614.959;113;10.00;41507.93
1737367615.009;125;10.00;47984.07
1737367615.059;125;10.00;47984.07
1737367615.109;120;10.00;45444.46
1737367615.160;122;10.00;46572.27
1737367615.209;113;10.00;41519.00
1737367615.259;113;10.00;41519.00
1737367615.309;113;10.00;41519.00
1737367615.359;108;10.00;39223.33
1737367615.409;103;10.00;36503.67
1737367615.460;103;10.00;36503.67
1737367615.509;103;10.00;36503.67
1737367615.560;102;10.00;36016.00
1737367615.609;121;10.00;45825.80
1737367615.660;121;10.00;45825.80
1737367615.710;121;10.00;45825.80
1737367615.760;116;10.00;43213.46
1737367615.810;110;10.00;40350.87
1737367615.860;110;10.00;40350.87
1737367615.910;110;10.00;40350.87
1737367615.960;108;10.00;39091.20
1737367616.010;112;10.00;41377.20
1737367616.060;112;10.00;41377.20
1737367616.110;112;10.00;41377.20
1737367616.160;114;10.00;42228.13
1737367616.209;118;10.00;44610.80
1737367616.260;110;10.00;40321.33
1737367616.310;110;10.00;40321.33
1737367616.360;110;10.00;40321.33
1737367616.411;121;10.00;46275.87
1737367616.461;121;10.00;46275.87
1737367616.511;121;10.00;46275.87
1737367616.561;121;10.00;46275.87
1737367616.611;114;10.00;42091.40
1737367616.661;114;10.00;42091.40
1737367616.711;114;10.00;42091.40
1737367616.761;122;10.00;46415.80
1737367616.812;103;10.00;36169.73
1737367616.861;103;10.00;36169.73
1737367616.911;103;10.00;36169.73
1737367616.961;116;10.00;43610.93
1737367617.012;112;10.00;41336.27
1737367617.062;112;10.00;41336.27
1737367617.111;112;10.00;41336.27
1737367617.168;110;10.00;39871.20
1737367617.211;117;10.00;43918.54
1737367617.261;117;10.00;43918.54
1737367617.312;117;10.00;43918.54
1737367617.361;111;10.00;40775.00
1737367617.412;112;10.00;41222.67
1737367617.462;112;10.00;41222.67
1737367617.512;112;10.00;41222.67
1737367617.562;112;10.00;41222.67
1737367617.612;116;10.00;43438.00
1737367617.662;116;10.00;43438.00
1737367617.712;116;10.00;43438.00
1737367617.762;116;10.00;43438.00
1737367617.812;110;10.00;39896.60
1737367617.862;110;10.00;39896.60
1737367617.912;110;10.00;39896.60
1737367617.962;119;10.00;44908.54
1737367618.012;111;10.00;40586.13
1737367618.065;111;10.00;40586.13
1737367618.112;111;10.00;40586.13
1737367618.163;112;10.00;40979.60
1737367618.212;116;10.00;43109.33
1737367618.263;116;10.00;43109.33
1737367618.313;116;10.00;43109.33
1737367618.363;118;10.00;44529.27
1737367618.413;109;10.00;39278.33
1737367618.462;109;10.00;39278.33
1737367618.512;109;10.00;39278.33
1737367618.563;116;10.00;43537.80
1737367618.613;117;10.00;43923.80
1737367618.663;117;10.00;43923.80
1737367618.713;117;10.00;43923.80
1737367618.763;122;10.00;46387.73
1737367618.814;119;10.00;44836.20
1737367618.863;119;10.00;44836.20
1737367618.913;119;10.00;44836.20
1737367618.964;119;10.00;44836.20
1737367619.014;111;10.00;40707.67
1737367619.064;111;10.00;40707.67
1737367619.113;111;10.00;40707.67
1737367619.164;107;10.00;38285.87
1737367619.214;107;10.00;38561.87
1737367629.938;106;10.00;37837.07
1737367629.988;106;10.00;37837.07
1737367630.038;106;10.00;37837.07
1737367630.088;116;10.00;43562.40
1737367630.138;116;10.00;43562.40
1737367630.188;116;10.00;43562.40
1737367630.238;102;10.00;35978.67
1737367630.288;102;10.00;35978.67
1737367630.338;102;10.00;35978.67
1737367630.388;111;10.00;40889.27
1737367630.438;106;10.00;37965.60
1737367630.488;106;10.00;37965.60
1737367630.538;107;10.00;38631.13
1737367630.588;111;10.00;40757.46
1737367630.638;122;10.00;46512.40
1737367630.688;122;10.00;46512.40
1737367630.738;110;10.00;40218.13
1737367630.789;107;10.00;38431.87
1737367630.838;107;10.00;38431.87
1737367630.889;107;10.00;38431.87
1737367630.939;119;10.00;44859.67
1737367630.990;119;10.00;44859.67
1737367631.039;119;10.00;44859.67
1737367631.089;115;10.00;42699.00
1737367631.140;115;10.00;42699.00
1737367631.189;115;10.00;42699.00
1737367631.239;123;10.00;46978.54
1737367631.289;123;10.00;47220.93
1737367631.340;123;10.00;47220.93
1737367631.390;110;10.00;40081.33
1737367631.439;114;10.00;42079.20
1737367631.489;114;10.00;42079.20
1737367631.539;118;10.00;44434.27
1737367631.590;116;10.00;43097.40
1737367631.640;107;10.00;38392.27
1737367631.690;107;10.00;38392.27
1737367631.740;111;10.00;40802.93
1737367631.790;119;10.00;45103.07
1737367631.840;130;10.00;50878.73
1737367631.890;130;10.00;50878.73
1737367631.940;108;10.00;38976.13
1737367631.991;112;10.00;41062.13
1737367632.041;112;10.00;41062.13
1737367632.091;112;10.00;41062.13
1737367632.141;105;10.00;37493.73
1737367632.191;110;10.00;40235.46
1737367632.241;110;10.00;40235.46
1737367632.292;111;10.00;40573.20
1737367632.341;110;10.00;40154.13
1737367632.391;110;10.00;40154.13
1737367632.442;111;10.00;40361.40
1737367632.491;111;10.00;40361.40
1737367632.541;111;10.00;40361.40
1737367632.592;107;10.00;38687.13
1737367632.642;103;10.00;36311.46
1737367632.692;103;10.00;36311.46
1737367632.742;115;10.00;42967.67
1737367632.791;111;10.00;40828.00
1737367632.841;111;10.00;40828.00
1737367632.891;111;10.00;40828.00
1737367632.942;120;10.00;45708.13
1737367632.992;113;10.00;41459.73
1737367633.042;113;10.00;41459.73
1737367633.091;113;10.00;41459.73
1737367633.142;109;10.00;39681.40
1737367633.192;109;10.00;39681.40
1737367633.242;109;10.00;39681.40
1737367633.292;112;10.00;41003.33
1737367633.341;112;10.00;41003.33
1737367633.392;112;10.00;41003.33
1737367633.441;105;10.00;37303.93
1737367633.492;119;10.00;45039.20
1737367633.542;119;10.00;45039.20
1737367633.592;119;10.00;45039.20
1737367633.642;105;10.00;37250.54
1737367633.691;105;10.00;37250.54
1737367633.742;105;10.00;37250.54
1737367633.792;117;10.00;43767.46
1737367633.842;117;10.00;43767.46
1737367633.892;117;10.00;43767.46
1737367633.942;108;10.00;39202.67
1737367774.886;350;14.93;39434.93
1737367774.936;350;14.93;39434.93
1737367774.988;350;14.93;39434.93
1737367775.038;350;16.21;44664.80
1737367775.088;350;16.21;44664.80
1737367775.138;350;16.21;44664.80
1737367775.188;350;16.60;46267.33
1737367775.238;350;16.60;46267.33
1737367775.288;350;16.60;46267.33
1737367775.338;350;15.16;40385.80
1737367775.388;350;15.16;40385.80
1737367775.438;350;15.16;40385.80
1737367775.488;350;16.60;46264.54
1737367775.538;350;15.54;41924.54
1737367775.588;350;15.54;41924.54
1737367775.638;350;16.02;43892.27
1737367775.688;350;16.02;43892.27
1737367775.738;350;16.02;43892.27
1737367775.788;350;15.66;42426.40
1737367775.838;350;15.37;41246.87
1737367775.888;350;15.37;41246.87
1737367775.938;350;16.41;45498.87
1737367775.988;350;15.54;41933.87
1737367776.038;350;15.54;41933.87
1737367776.088;350;15.66;42424.07
1737367776.138;350;14.36;37100.00
1737367776.188;350;14.36;37100.00
1737367776.238;350;14.36;37100.00
1737367776.288;350;15.44;41532.40
1737367776.338;350;15.44;41532.40
1737367776.388;350;15.44;41532.40
1737367776.438;350;15.78;42892.40
1737367776.488;350;14.48;37593.07
1737367776.538;350;14.48;37593.07
1737367776.588;350;14.48;37593.07
1737367776.638;350;14.66;38345.60
1737367776.688;350;14.66;38345.60
1737367776.738;350;15.59;42121.13
1737367776.789;350;15.32;41037.73
1737367776.839;350;15.32;41037.73
1737367776.889;350;14.10;36020.27
1737367776.938;350;16.47;45732.60
1737367776.988;350;16.47;45732.60
1737367777.039;350;15.52;41839.73
1737367777.089;350;15.92;43504.13
1737367777.139;350;15.92;43504.13
1737367777.189;350;15.47;41628.33
1737367777.238;350;16.42;45524.93
1737367777.289;350;16.42;45524.93
1737367777.339;350;15.99;43771.54
1737367777.388;350;15.59;42131.67
1737367777.439;350;15.59;42131.67
1737367777.489;350;16.71;46697.93
1737367777.538;350;15.12;40217.67
1737367777.589;350;15.12;40217.67
1737367777.639;350;15.53;41893.07
1737367777.690;350;15.11;40153.54
1737367777.739;350;15.11;40153.54
1737367777.790;350;15.11;40153.54
1737367777.839;350;15.45;41548.80
1737367777.890;350;15.45;41548.80
1737367777.940;350;15.45;41548.80
1737367777.990;350;16.43;45572.80
1737367778.039;350;16.41;45476.67
1737367778.090;350;16.41;45476.67
1737367778.139;350;15.71;42628.40
1737367778.190;350;14.13;36180.60
1737367778.239;350;14.13;36180.60
1737367778.291;350;14.89;39256.13
1737367778.341;350;15.87;43263.67
1737367778.391;350;15.87;43263.67
1737367778.441;350;15.62;42256.80
1737367788.615;350;14.70;38510.67
1737367788.664;350;14.70;38510.67
1737367788.714;350;14.70;38510.67
1737367788.765;350;15.33;41089.73
1737367788.814;350;15.33;41089.73
1737367788.866;350;15.33;41089.73
1737367788.915;350;16.36;45288.40
1737367788.966;350;15.69;42532.87
1737367789.016;350;15.69;42532.87
1737367789.066;350;15.69;42532.87
1737367789.116;350;14.95;39499.13
1737367789.166;350;14.87;39169.46
1737367789.221;350;14.87;39169.46
1737367789.268;350;16.63;46406.40
1737367789.318;350;15.91;43443.33
1737367789.368;350;14.71;38536.93
1737367789.418;350;14.71;38536.93
1737367789.468;350;16.56;46103.73
1737367789.518;350;16.58;46188.07
1737367789.568;350;16.58;46188.07
1737367789.619;350;16.58;46188.07
1737367789.669;350;16.46;45687.46
1737367789.719;350;14.89;39289.33
1737367789.770;350;14.89;39289.33
1737367789.820;350;14.89;39289.33
1737367789.869;350;16.35;45231.07
1737367789.920;350;16.35;45231.07
1737367789.969;350;15.13;40245.40
1737367790.020;350;15.80;42979.40
1737367790.071;350;15.80;42979.40
1737367790.121;350;15.80;42979.40
1737367790.170;350;15.46;41593.67
1737367790.220;350;14.93;39440.67
1737367790.272;350;14.93;39440.67
1737367790.324;350;15.60;42187.80
1737367790.372;350;14.11;36096.00
1737367790.422;350;14.11;36096.00
1737367790.472;350;14.11;36096.00
1737367790.522;350;16.10;44200.33
1737367790.572;350;17.19;48662.87
1737367790.622;350;17.19;48662.87
1737367790.671;350;15.30;40952.40
1737367790.722;350;15.11;40191.40
1737367790.773;350;15.11;40191.40
1737367790.823;350;15.74;42740.27
1737367790.873;350;15.65;42381.87
1737367790.923;350;15.65;42381.87
1737367790.973;350;15.65;42381.87
1737367791.023;350;16.64;46448.13
1737367791.073;350;16.60;46252.20
1737367791.123;350;16.60;46252.20
1737367791.173;350;14.29;36809.73
1737367791.223;350;14.38;37200.73
1737367791.273;350;14.38;37200.73
1737367791.323;350;14.38;37200.73
1737367791.373;350;16.70;46693.73
1737367791.423;350;16.70;46693.73
1737367791.473;350;16.70;46693.73
1737367791.524;350;16.52;45957.00
1737367791.574;350;14.29;36829.20
1737367791.624;350;14.29;36829.20
1737367791.674;350;14.03;35765.93
1737367791.725;350;15.75;42785.87
1737367791.774;350;15.75;42785.87
1737367791.825;350;15.75;42785.87
1737367791.875;350;14.78;38837.46
1737367791.925;350;14.78;38837.46
1737367791.975;350;14.78;38837.46
1737367792.024;350;14.68;38416.46
1737367792.075;350;14.68;38416.46
1737367792.125;350;14.68;38416.46
1737367792.174;350;15.56;42009.80
1737367792.225;350;15.81;43051.73
1737367792.274;350;15.81;43051.73
1737367792.325;350;15.81;43051.73
1737367792.375;350;14.33;36985.07
1737367792.425;350;14.33;36985.07
1737367792.475;350;14.33;36985.07
1737367792.526;350;14.82;38998.46
1737367792.576;350;14.82;38998.46
1737367792.625;350;14.82;38998.46
1737367792.676;350;15.86;43257.73
1737367803.414;350;14.49;37635.07
1737367803.463;350;14.49;37635.07
1737367803.514;350;14.49;37635.07
1737367803.563;350;14.10;36058.27
1737367803.614;350;14.10;36058.27
1737367803.664;350;14.10;36058.27
1737367803.713;350;16.30;45022.67
1737367803.764;350;16.75;46869.27
1737367803.814;350;16.75;46869.27
1737367803.864;350;15.56;42025.07
1737367803.914;350;16.73;46792.40
1737367803.964;350;16.73;46792.40
1737367804.014;350;16.73;46792.40
1737367804.064;350;14.73;38604.00
1737367804.114;350;15.28;40847.93
1737367804.164;350;15.28;40847.93
1737367804.214;350;15.02;39813.73
1737367804.265;350;16.05;44035.93
1737367804.314;350;16.05;44035.93
1737367804.365;350;16.05;44035.93
1737367804.414;350;16.31;45096.60
1737367804.464;350;16.60;46265.73
1737367804.514;350;16.60;46265.73
1737367804.564;350;14.38;37191.40
1737367804.615;350;16.36;45267.46
1737367804.664;350;16.36;45267.46
1737367804.714;350;15.63;42278.54
1737367804.764;350;13.88;35126.87
1737367804.814;350;13.88;35126.87
1737367804.866;350;13.88;35126.87
1737367804.915;350;14.05;35832.00
1737367804.965;350;14.05;35832.00
1737367805.016;350;14.05;35832.00
1737367805.065;350;14.79;38850.40
1737367805.116;350;14.59;38057.87
1737367805.166;350;14.59;38057.87
1737367805.215;350;15.32;41023.07
1737367805.265;350;14.62;38164.67
1737367805.317;350;14.62;38164.67
1737367805.366;350;14.62;38164.67
1737367805.416;350;16.50;45839.46
1737367805.466;350;17.08;48221.20
1737367805.517;350;17.08;48221.20
1737367805.567;350;14.98;39654.33
1737367805.618;350;13.94;35387.20
1737367805.668;350;13.94;35387.20
1737367805.718;350;14.63;38205.54
1737367805.968;350;13.94;35382.67
1737367806.019;350;13.94;35382.67
1737367806.069;350;14.44;37415.07
1737367806.119;350;14.12;36130.54
1737367806.169;350;14.12;36130.54
1737367806.219;350;14.12;36130.54
1737367806.269;350;14.38;37200.20
1737367806.319;350;14.38;37200.20
1737367806.369;350;14.38;37200.20
1737367806.419;350;16.22;44719.20
1737367806.469;350;16.22;44719.20
1737367806.519;350;16.22;44719.20
1737367806.569;350;14.19;36405.60
1737367806.619;350;14.20;36448.27
1737367806.669;350;14.20;36448.27
1737367806.719;350;15.41;41400.07
1737367806.769;350;14.99;39686.60
1737367806.819;350;14.99;39686.60
1737367806.870;350;17.07;48187.00
1737367806.919;350;14.58;37996.27
1737367806.969;350;14.84;39052.00
1737367807.019;350;14.84;39052.00
1737367807.069;350;15.89;43370.27
1737367807.120;350;15.58;42083.07
1737367807.169;350;15.58;42083.07
1737367807.220;350;17.42;49631.00
1737367939.790;109;30.00;39370.93
1737367939.840;109;30.00;39370.93
1737367939.890;109;30.00;39370.93
1737367939.940;103;30.00;36035.73
1737367939.990;105;30.00;37273.20
1737367940.041;105;30.00;37273.20
1737367940.090;105;30.00;37273.20
1737367940.141;108;30.00;38825.20
1737367940.191;108;30.00;38825.20
1737367940.240;108;30.00;38825.20
1737367940.291;112;30.00;41275.93
1737367940.340;113;30.00;41734.33
1737367940.390;113;30.00;41734.33
1737367940.440;113;30.00;41734.33
1737367940.491;104;30.00;36684.13
1737367940.540;104;30.00;36684.13
1737367940.590;104;30.00;36684.13
1737367940.641;117;30.00;43987.00
1737367940.691;117;30.00;43987.00
1737367940.741;117;30.00;43987.00
1737367940.791;115;30.00;42973.13
1737367940.840;115;30.00;42973.13
1737367940.890;115;30.00;42973.13
1737367940.942;123;30.00;47294.33
1737367940.993;123;30.00;46928.27
1737367941.043;123;30.00;46928.27
1737367941.093;123;30.00;46928.27
1737367941.143;104;30.00;36949.33
1737367941.193;104;30.00;36949.33
1737367941.243;104;30.00;36949.33
1737367941.293;127;30.00;49207.73
1737367941.343;112;30.00;41258.13
1737367941.394;112;30.00;41258.13
1737367941.444;112;30.00;41258.13
1737367941.494;119;30.00;45057.67
1737367941.543;119;30.00;45057.67
1737367941.593;119;30.00;45057.67
1737367941.644;101;30.00;35464.00
1737367941.693;101;30.00;35464.00
1737367941.744;101;30.00;35464.00
1737367941.793;112;30.00;41144.40
1737367941.843;114;30.00;42049.40
1737367941.894;114;30.00;42049.40
1737367941.944;114;30.00;42049.40
1737367941.993;120;30.00;45420.40
1737367942.044;120;30.00;45420.40
1737367942.094;120;30.00;45420.40
1737367942.144;117;30.00;43679.73
1737367942.193;119;30.00;45061.60
1737367942.243;119;30.00;45061.60
1737367942.294;105;30.00;37402.67
1737367942.344;101;30.00;35476.54
1737367942.394;108;30.00;39023.27
1737367942.444;108;30.00;39023.27
1737367942.495;108;30.00;39023.27
1737367942.548;120;30.00;45571.60
1737367942.595;106;30.00;38106.40
1737367942.644;106;30.00;38106.40
1737367942.695;106;30.00;38106.40
1737367942.745;109;30.00;39618.54
1737367942.795;111;30.00;40650.54
1737367942.845;111;30.00;40650.54
1737367942.895;106;30.00;38056.27
1737367942.945;102;30.00;35657.40
1737367942.995;102;30.00;35657.40
1737367943.045;102;30.00;35657.40
1737367943.095;120;30.00;45599.07
1737367943.145;122;30.00;46813.93
1737367943.195;122;30.00;46813.93
1737367943.245;122;30.00;46813.93
1737367943.295;104;30.00;36642.80
1737367943.345;104;30.00;36642.80
1737367943.394;104;30.00;36642.80
1737367943.446;104;30.00;36642.80
1737367943.496;104;30.00;36880.93
1737367943.546;104;30.00;36880.93
1737367943.597;104;30.00;36880.93
1737367943.646;105;30.00;37416.27
1737367943.698;105;30.00;37416.27
1737367943.748;105;30.00;37416.27
1737367954.930;107;30.00;38560.27
1737367954.980;107;30.00;38560.27
1737367955.030;112;30.00;40917.54
1737367955.080;103;30.00;36049.87
1737367955.130;103;30.00;36049.87
1737367955.180;103;30.00;36049.87
1737367955.230;119;30.00;45096.33
1737367955.281;119;30.00;45096.33
1737367955.331;119;30.00;45096.33
1737367955.381;122;30.00;46477.87
1737367955.431;106;30.00;37769.60
1737367955.481;104;30.00;36782.13
1737367955.531;104;30.00;36782.13
1737367955.582;104;30.00;36782.13
1737367955.631;109;30.00;39649.13
1737367955.681;114;30.00;42025.13
1737367955.731;114;30.00;42025.13
1737367955.782;114;30.00;42025.13
1737367955.832;122;30.00;46798.33
1737367955.883;101;30.00;35210.87
1737367955.932;101;30.00;35210.87
1737367955.982;101;30.00;35210.87
1737367956.033;123;30.00;47021.93
1737367956.082;118;30.00;44649.67
1737367956.133;118;30.00;44649.67
1737367956.182;118;30.00;44649.67
1737367956.232;114;30.00;42521.20
1737367956.432;118;30.00;44157.87
1737367956.482;116;30.00;43461.46
1737367956.532;116;30.00;43461.46
1737367956.582;105;30.00;37310.67
1737367956.633;115;30.00;42764.60
1737367956.683;104;30.00;36994.13
1737367956.733;104;30.00;36994.13
1737367956.783;104;30.00;36994.13
1737367956.834;117;30.00;43682.27
1737367956.884;124;30.00;47606.73
1737367956.934;124;30.00;47606.73
1737367956.984;124;30.00;47606.73
1737367957.034;107;30.00;38247.40
1737367957.084;105;30.00;37108.13
1737367957.134;105;30.00;37108.13
1737367957.184;105;30.00;37108.13
1737367957.234;121;30.00;46089.87
1737367957.284;113;30.00;41633.73
1737367957.334;113;30.00;41633.73
1737367957.384;114;30.00;42367.07
1737367957.434;102;30.00;35866.40
1737367957.484;102;30.00;35866.40
1737367957.535;102;30.00;35866.40
1737367957.585;123;30.00;47006.54
1737367957.635;101;30.00;35447.33
1737367957.685;101;30.00;35447.33
1737367957.735;101;30.00;35447.33
1737367957.935;101;30.00;35125.80
1737367957.985;101;30.00;35273.73
1737367958.036;101;30.00;35273.73
1737367958.086;101;30.00;35273.73
1737367958.136;102;30.00;35790.13
1737367958.186;115;30.00;43018.67
1737367958.236;115;30.00;43018.67
1737367958.287;115;30.00;43018.67
1737367958.336;124;30.00;47914.54
1737367958.386;105;30.00;37546.54
1737367958.436;105;30.00;37546.54
1737367958.487;111;30.00;40635.73
1737367958.537;116;30.00;43211.00
1737367958.587;116;30.00;43211.00
1737367958.636;116;30.00;43211.00
1737367958.687;120;30.00;45474.54
1737367958.737;104;30.00;37092.54
1737367958.786;104;30.00;37092.54
1737367958.837;104;30.00;37092.54
1737367958.887;110;30.00;39889.20
1737367958.937;110;30.00;39889.20
1737367958.987;110;30.00;39889.20
1737367959.037;110;30.00;40140.80
1737367959.088;114;30.00;42274.33
1737367959.138;114;30.00;42274.33
1737367959.187;114;30.00;42274.33
1737367959.238;121;30.00;46261.40
1737367959.288;122;30.00;46404.27
1737367959.338;122;30.00;46404.27
1737367959.388;122;30.00;46404.27
1737367959.438;111;30.00;40618.93
1737367971.358;114;30.00;42457.73
1737367971.408;114;30.00;42457.73
1737367971.458;114;30.00;42457.73
1737367971.508;104;30.00;36708.40
1737367971.558;104;30.00;36708.40
1737367971.608;104;30.00;36708.40
1737367971.659;116;30.00;43349.67
1737367971.709;110;30.00;40179.73
1737367971.759;110;30.00;40179.73
1737367971.808;110;30.00;39943.60
1737367971.859;110;30.00;40332.40
1737367971.909;110;30.00;40332.40
1737367971.960;110;30.00;40332.40
1737367972.013;102;30.00;35952.27
1737367972.061;105;30.00;37117.60
1737367972.111;105;30.00;37117.60
1737367972.161;105;30.00;37117.60
1737367972.211;124;30.00;47722.73
1737367972.261;104;30.00;36868.80
1737367972.311;104;30.00;36868.80
1737367972.361;104;30.00;36868.80
1737367972.411;125;30.00;48091.07
1737367972.461;122;30.00;46747.73
1737367972.511;122;30.00;46747.73
1737367972.561;122;30.00;46747.73
1737367972.611;119;30.00;44809.33
1737367972.661;119;30.00;44809.33
1737367972.711;119;30.00;44809.33
1737367972.761;102;30.00;36015.13
1737367972.811;114;30.00;42452.73
1737367972.861;114;30.00;42452.73
1737367972.911;116;30.00;43128.46
1737367972.961;127;30.00;49415.73
1737367973.011;127;30.00;49415.73
1737367973.061;127;30.00;49415.73
1737367973.111;106;30.00;38082.00
1737367973.161;118;30.00;44632.67
1737367973.212;118;30.00;44632.67
1737367973.263;118;30.00;44632.67
1737367973.464;118;30.00;44486.40
1737367973.513;118;30.00;44486.40
1737367973.564;118;30.00;44486.40
1737367973.613;120;30.00;45337.20
1737367973.663;117;30.00;43791.33
1737367973.714;117;30.00;43791.33
1737367973.764;117;30.00;43791.33
1737367973.814;102;30.00;35834.80
1737367973.864;102;30.00;35834.80
1737367973.914;102;30.00;35834.80
1737367974.116;121;30.00;45785.07
1737367974.165;106;30.00;38119.20
1737367974.215;106;30.00;38119.20
1737367974.266;106;30.00;38119.20
1737367974.316;116;30.00;43232.87
1737367974.366;118;30.00;44157.93
1737367974.415;118;30.00;44157.93
1737367974.466;118;30.00;44157.93
1737367974.566;102;30.00;35982.13
1737367974.616;102;30.00;35982.13
1737367974.666;102;30.00;35982.13
1737367974.716;123;30.00;47035.00
1737367974.767;123;30.00;47035.00
1737367974.817;123;30.00;47035.00
1737367974.867;102;30.00;35909.67
1737367974.917;114;30.00;42373.00
1737367974.967;114;30.00;42373.00
1737367975.017;103;30.00;36381.40
1737368107.059;500;14.70;38478.00
1737368107.110;500;14.70;38478.00
1737368107.159;500;14.70;38478.00
1737368107.209;500;15.86;43251.60
1737368107.259;500;15.86;43251.60
1737368107.309;500;15.86;43251.60
1737368107.360;500;15.73;42701.80
1737368107.409;500;15.73;42701.80
1737368107.459;500;16.09;44181.00
1737368107.509;500;14.61;38114.46
1737368107.559;500;14.61;38114.46
1737368107.609;500;14.61;38114.46
1737368107.660;500;15.45;41561.07
1737368107.709;500;15.51;41825.60
1737368107.759;500;15.51;41825.60
1737368107.810;500;15.75;42778.54
1737368107.859;500;15.47;41655.20
1737368107.910;500;15.47;41655.20
1737368107.959;500;15.47;41655.20
1737368108.009;500;17.36;49380.87
1737368108.060;500;14.13;36153.33
1737368108.110;500;14.13;36153.33
1737368108.160;500;14.13;36153.33
1737368108.209;500;17.01;47932.20
1737368108.260;500;15.40;41360.67
1737368108.310;500;15.40;41360.67
1737368108.359;500;15.40;41360.67
1737368108.410;500;16.30;45036.73
1737368108.459;500;16.30;45036.73
1737368108.509;500;16.30;45036.73
1737368108.560;500;15.61;42199.60
1737368108.609;500;15.61;42199.60
1737368108.659;500;15.61;42199.60
1737368108.710;500;14.36;37120.54
1737368108.760;500;15.30;40961.46
1737368108.810;500;15.30;40961.46
1737368108.859;500;15.44;41524.73
1737368108.910;500;16.74;46854.93
1737368108.959;500;16.74;46854.93
1737368109.010;500;16.74;46854.93
1737368109.060;500;15.06;39971.00
1737368109.109;500;16.79;47061.80
1737368109.160;500;16.79;47061.80
1737368109.210;500;16.32;45116.07
1737368109.260;500;14.58;37988.40
1737368109.310;500;14.58;37988.40
1737368109.359;500;14.58;37988.40
1737368109.410;500;15.46;41584.67
1737368109.460;500;15.46;41584.67
1737368109.510;500;15.46;41584.67
1737368109.560;500;16.74;46849.00
1737368109.610;500;15.14;40308.27
1737368109.660;500;15.14;40308.27
1737368109.710;500;15.14;40308.27
1737368109.760;500;16.50;45860.13
1737368109.810;500;16.50;45860.13
1737368109.860;500;16.50;45860.13
1737368109.910;500;16.11;44275.40
1737368109.960;500;16.25;44844.20
1737368110.010;500;16.25;44844.20
1737368110.060;500;16.01;43842.60
1737368110.110;500;15.55;41986.80
1737368110.161;500;15.55;41986.80
1737368110.210;500;15.55;41986.80
1737368110.260;500;15.43;41472.40
1737368110.310;500;15.70;42587.40
1737368110.360;500;15.70;42587.40
1737368110.410;500;15.70;42587.40
1737368110.460;500;14.53;37805.46
1737368110.511;500;17.14;48484.73
1737368110.560;500;17.14;48484.73
1737368110.610;500;15.15;40322.67
1737368110.660;500;14.87;39176.27
1737368110.711;500;14.87;39176.27
1737368110.761;500;14.87;39176.27
1737368110.810;500;14.28;36775.13
1737368110.860;500;14.28;36775.13
1737368110.910;500;14.28;36775.13
1737368110.960;500;14.28;36775.13
1737368111.010;500;14.35;37052.27
1737368111.060;500;14.35;37052.27
1737368111.110;500;14.35;37052.27
1737368111.162;500;16.43;45588.67
1737368122.091;500;14.47;37565.54
1737368122.141;500;13.96;35447.73
1737368122.191;500;13.96;35447.73
1737368122.242;500;13.96;35447.73
1737368122.292;500;17.47;49837.33
1737368122.342;500;15.48;41693.60
1737368122.391;500;15.48;41693.60
1737368122.443;500;15.50;41757.54
1737368122.493;500;14.99;39695.20
1737368122.543;500;14.99;39695.20
1737368122.593;500;14.99;39695.20
1737368122.643;500;16.99;47842.80
1737368122.692;500;16.99;47842.80
1737368122.743;500;16.99;47842.80
1737368122.793;500;16.27;44933.13
1737368122.844;500;15.52;41850.13
1737368122.893;500;15.52;41850.13
1737368122.943;500;15.52;41850.13
1737368122.994;500;15.93;43538.54
1737368123.043;500;15.31;40992.20
1737368123.094;500;15.31;40992.20
1737368123.144;500;15.31;40992.20
1737368123.193;500;16.17;44486.20
1737368123.243;500;15.80;42991.73
1737368123.294;500;15.80;42991.73
1737368123.344;500;14.95;39526.13
1737368123.394;500;15.49;41721.33
1737368123.445;500;15.49;41721.33
1737368123.495;500;15.76;42829.93
1737368123.545;500;16.45;45634.67
1737368123.595;500;16.45;45634.67
1737368123.644;500;16.45;45634.67
1737368123.694;500;14.74;38672.67
1737368123.896;500;14.42;37343.20
1737368123.946;500;14.42;37343.20
1737368123.996;500;14.42;37343.20
1737368124.046;500;14.58;38023.67
1737368124.096;500;15.59;42121.67
1737368124.146;500;15.59;42121.67
1737368124.196;500;15.59;42121.67
1737368124.246;500;15.42;41436.93
1737368124.296;500;14.33;36981.60
1737368124.346;500;14.33;36981.60
1737368124.396;500;14.33;36981.60
1737368124.446;500;15.37;41254.80
1737368124.496;500;16.48;45755.73
1737368124.546;500;16.48;45755.73
1737368124.596;500;16.48;45755.73
1737368124.646;500;16.82;47179.07
1737368124.696;500;16.53;45978.27
1737368124.745;500;16.53;45978.27
1737368124.796;500;15.43;41494.13
1737368124.846;500;14.83;39020.46
1737368124.896;500;14.63;38194.54
1737368124.946;500;14.63;38194.54
1737368124.996;500;14.86;39129.80
1737368125.046;500;16.38;45374.07
1737368125.096;500;14.40;37283.07
1737368125.146;500;14.40;37283.07
1737368125.196;500;14.40;37283.07
1737368125.246;500;16.69;46628.46
1737368125.295;500;16.94;47648.40
1737368125.346;500;16.11;44264.07
1737368125.396;500;16.11;44264.07
1737368125.447;500;16.11;44264.07
1737368125.547;500;14.86;39149.33
1737368125.596;500;14.86;39149.33
1737368125.647;500;14.86;39149.33
1737368125.696;500;15.83;43111.27
1737368125.746;500;15.54;41936.54
1737368125.797;500;15.78;42914.87
1737368125.846;500;15.78;42914.87
1737368125.897;500;15.88;43314.73
1737368125.946;500;14.71;38546.67
1737368125.996;500;14.80;38905.60
1737368126.047;500;14.80;38905.60
1737368126.097;500;14.80;38905.60
1737368126.147;500;16.63;46387.13
1737368126.197;500;17.23;48832.07
1737368126.247;500;17.23;48832.07
1737368126.296;500;17.23;48832.07
1737368126.346;500;17.23;48832.07
1737368126.397;500;17.35;49316.00
1737368126.447;500;17.35;49316.00
1737368126.497;500;17.35;49316.00
1737368126.546;500;15.24;40689.93
1737368126.597;500;14.30;36857.33
1737368137.266;500;14.91;39336.67
1737368137.316;500;15.13;40266.13
1737368137.365;500;15.13;40266.13
1737368137.416;500;13.99;35590.13
1737368137.466;500;15.72;42650.93
1737368137.516;500;15.72;42650.93
1737368137.566;500;15.72;42650.93
1737368137.615;500;14.76;38738.54
1737368137.665;500;15.19;40478.67
1737368137.717;500;14.42;37353.60
1737368137.767;500;14.42;37353.60
1737368137.817;500;14.42;37353.60
1737368137.867;500;15.83;43136.33
1737368137.917;500;15.82;43054.60
1737368137.968;500;15.82;43054.60
1737368138.018;500;14.16;36305.60
1737368138.068;500;15.50;41757.73
1737368138.118;500;15.58;42096.13
1737368138.168;500;15.58;42096.13
1737368138.218;500;15.49;41738.93
1737368138.268;500;17.08;48217.46
1737368138.318;500;17.08;48217.46
1737368138.368;500;17.08;48217.46
1737368138.418;500;15.76;42838.67
1737368138.468;500;15.49;41737.54
1737368138.518;500;15.49;41737.54
1737368138.568;500;15.49;41737.54
1737368138.618;500;16.45;45660.07
1737368138.668;500;16.45;45660.07
1737368138.718;500;16.45;45660.07
1737368138.768;500;16.25;44821.33
1737368138.818;500;16.41;45473.67
1737368138.868;500;16.41;45473.67
1737368138.918;500;16.41;45473.67
1737368138.968;500;16.05;44006.67
1737368139.018;500;15.05;39935.46
1737368139.068;500;15.05;39935.46
1737368139.118;500;15.05;39935.46
1737368139.168;500;15.94;43560.73
1737368139.218;500;16.98;47827.73
1737368139.268;500;16.98;47827.73
1737368139.319;500;16.98;47830.67
1737368139.368;500;14.14;36221.33
1737368139.418;500;14.20;36444.54
1737368139.468;500;14.20;36444.54
1737368139.518;500;14.21;36490.54
1737368139.568;500;14.35;37075.46
1737368139.618;500;14.35;37075.46
1737368139.668;500;14.35;37075.46
1737368139.718;500;13.88;35120.80
1737368139.768;500;13.88;35120.80
1737368139.818;500;13.88;35120.80
1737368139.918;500;14.72;38570.07
1737368139.969;500;14.72;38570.07
1737368140.018;500;15.49;41744.40
1737368140.068;500;15.65;42377.80
1737368140.118;500;15.65;42377.80
1737368140.168;500;15.65;42377.80
1737368140.218;500;15.48;41676.33
1737368140.268;500;15.88;43338.46
1737368140.318;500;15.88;43338.46
1737368140.368;500;15.33;41082.93
1737368140.418;500;14.15;36253.87
1737368140.468;500;14.15;36253.87
1737368140.518;500;14.95;39504.87
1737368140.569;500;15.23;40680.27
1737368140.618;500;15.23;40680.27
1737368140.668;500;15.23;40680.27
1737368140.718;500;16.10;44207.27
1737368140.769;500;16.10;44207.27
1737368140.819;500;16.10;44207.27
1737368140.868;500;15.32;41022.60
1737368140.919;500;15.61;42212.27
1737368140.969;500;15.61;42212.27
1737368141.018;500;15.31;40971.46
1737368141.069;500;14.52;37770.40
1737368141.119;500;14.52;37770.40
1737368141.169;500;14.52;37770.40
1737368141.219;500;15.62;42250.20
1737368141.269;500;16.91;47537.27
1737368141.319;500;16.91;47537.27
1737368141.369;500;16.91;47537.27
1737368141.470;500;15.78;42896.60
1737368141.519;500;15.78;42896.60
1737368141.569;500;15.78;42896.60
1737368141.619;500;15.67;42453.20
1737368275.457;106;20.00;38087.20
1737368275.507;106;20.00;38087.20
1737368275.557;106;20.00;38087.20
1737368275.607;120;20.00;45452.93
1737368275.658;113;20.00;41942.40
1737368275.708;113;20.00;41942.40
1737368275.759;113;20.00;41942.40
1737368275.809;123;20.00;47151.87
1737368275.860;114;20.00;42019.13
1737368275.909;114;20.00;42019.13
1737368275.960;114;20.00;42019.13
1737368276.010;123;20.00;47386.46
1737368276.060;123;20.00;47386.46
1737368276.109;123;20.00;47386.46
1737368276.160;102;20.00;35730.27
1737368276.210;108;20.00;39037.33
1737368276.259;108;20.00;39037.33
1737368276.310;123;20.00;47349.33
1737368276.359;102;20.00;35696.93
1737368276.410;102;20.00;35696.93
1737368276.461;102;20.00;35696.93
1737368276.510;103;20.00;36228.67
1737368276.560;104;20.00;36965.20
1737368276.610;104;20.00;36965.20
1737368276.660;122;20.00;46380.54
1737368276.710;113;20.00;41858.54
1737368276.760;113;20.00;41858.54
1737368276.810;105;20.00;37345.87
1737368276.860;103;20.00;36297.00
1737368276.911;103;20.00;36297.00
1737368276.962;103;20.00;36297.00
1737368277.012;102;20.00;35917.54
1737368277.063;109;20.00;39532.67
1737368277.112;109;20.00;39532.67
1737368277.163;109;20.00;39532.67
1737368277.213;111;20.00;40466.54
1737368277.263;111;20.00;40466.54
1737368277.312;111;20.00;40466.54
1737368277.363;111;20.00;40466.54
1737368277.413;109;20.00;39589.07
1737368277.463;109;20.00;39589.07
1737368277.513;109;20.00;39589.07
1737368277.563;117;20.00;43676.73
1737368277.613;103;20.00;36317.73
1737368277.663;103;20.00;36317.73
1737368277.713;103;20.00;36317.73
1737368277.764;121;20.00;46237.20
1737368277.814;123;20.00;47026.33
1737368277.864;123;20.00;47026.33
1737368277.913;123;20.00;47026.33
1737368277.964;106;20.00;38167.67
1737368278.014;117;20.00;44130.67
1737368278.065;117;20.00;44130.67
1737368278.115;117;20.00;44130.67
1737368278.164;107;20.00;38576.27
1737368278.215;108;20.00;38915.80
1737368278.264;108;20.00;38915.80
1737368278.314;114;20.00;42236.87
1737368278.365;117;20.00;43807.46
1737368278.415;123;20.00;47172.60
1737368278.465;123;20.00;47172.60
1737368278.515;110;20.00;40329.87
1737368278.565;109;20.00;39351.40
1737368278.615;124;20.00;47856.60
1737368278.664;124;20.00;47856.60
1737368278.715;124;20.00;47882.80
1737368278.765;123;20.00;46918.54
1737368278.966;112;20.00;41141.00
1737368279.116;109;20.00;39324.00
1737368279.166;103;20.00;36053.80
1737368279.216;103;20.00;36053.80
1737368279.266;103;20.00;36053.80
1737368279.316;111;20.00;40379.93
1737368279.366;111;20.00;40896.54
1737368279.416;111;20.00;40896.54
1737368279.466;111;20.00;40896.54
1737368279.516;123;20.00;46987.80
1737368279.566;113;20.00;41552.27
1737368279.616;114;20.00;42143.07
1737368279.667;114;20.00;42143.07
1737368279.716;114;20.00;42143.07
1737368279.766;106;20.00;37707.40
1737368290.473;106;20.00;37818.60
1737368290.674;110;20.00;40147.13
1737368290.723;102;20.00;35826.54
1737368290.774;102;20.00;35826.54
1737368290.824;110;20.00;39936.80
1737368290.874;122;20.00;46410.13
1737368290.924;119;20.00;45121.80
1737368290.974;119;20.00;45121.80
1737368291.024;121;20.00;46155.80
1737368291.074;111;20.00;40601.87
1737368291.124;111;20.00;40601.87
1737368291.174;111;20.00;40601.87
1737368291.224;120;20.00;45582.07
1737368291.274;116;20.00;43438.00
1737368291.325;116;20.00;43438.00
1737368291.375;116;20.00;43438.00
1737368291.425;122;20.00;46418.33
1737368291.475;121;20.00;45794.13
1737368291.524;121;20.00;45794.13
1737368291.575;121;20.00;45794.13
1737368291.626;104;20.00;36789.27
1737368291.675;106;20.00;38061.93
1737368291.726;106;20.00;38061.93
1737368291.776;106;20.00;38061.93
1737368291.826;111;20.00;40761.73
1737368291.876;111;20.00;40761.73
1737368291.926;111;20.00;40761.73
1737368291.977;123;20.00;47347.13
1737368292.027;111;20.00;40717.87
1737368292.078;111;20.00;40717.87
1737368292.128;111;20.00;40717.87
1737368292.178;114;20.00;42050.67
1737368292.228;114;20.00;42050.67
1737368292.278;114;20.00;42050.67
1737368292.328;125;20.00;48078.87
1737368292.378;106;20.00;38158.80
1737368292.428;106;20.00;38158.80
1737368292.478;106;20.00;38158.80
1737368292.528;125;20.00;48407.67
1737368292.578;125;20.00;48407.67
1737368292.628;125;20.00;48407.67
1737368292.678;117;20.00;43882.46
1737368292.730;104;20.00;37046.93
1737368292.779;104;20.00;37046.93
1737368292.829;110;20.00;40043.73
1737368292.879;105;20.00;37357.33
1737368292.930;105;20.00;37357.33
1737368292.979;105;20.00;37357.33
1737368293.030;114;20.00;42485.80
1737368293.080;116;20.00;43559.40
1737368293.131;116;20.00;43559.40
1737368293.181;116;20.00;43559.40
1737368293.231;120;20.00;45744.87
1737368293.282;118;20.00;44580.33
1737368293.331;116;20.00;43282.07
1737368293.382;116;20.00;43282.07
1737368293.435;103;20.00;36555.73
1737368293.482;108;20.00;39014.13
1737368293.532;107;20.00;38334.80
1737368293.582;107;20.00;38334.80
1737368293.632;107;20.00;38334.80
1737368293.684;107;20.00;38334.80
1737368293.732;112;20.00;41205.46
1737368293.782;112;20.00;41205.46
1737368293.832;112;20.00;41205.46
1737368293.882;123;20.00;47088.73
1737368293.932;109;20.00;39301.54
1737368293.982;109;20.00;39301.54
1737368294.032;109;20.00;39301.54
1737368294.082;121;20.00;46230.93
1737368294.132;103;20.00;36263.20
1737368294.182;103;20.00;36263.20
1737368294.232;103;20.00;36263.20
1737368294.282;102;20.00;35733.60
1737368294.332;107;20.00;38516.07
1737368294.383;107;20.00;38516.07
1737368294.433;107;20.00;38516.07
1737368294.483;105;20.00;37280.40
1737368294.533;118;20.00;44440.13
1737368294.583;118;20.00;44440.13
1737368294.632;118;20.00;44440.13
1737368294.682;102;20.00;35977.07
1737368294.932;102;20.00;35888.93
1737368294.983;102;20.00;35888.93
1737368295.033;102;20.00;35888.93
1737368305.890;112;20.00;41339.87
1737368305.940;112;20.00;41339.87
1737368305.989;112;20.00;41339.87
1737368306.040;115;20.00;42795.33
1737368306.090;118;20.00;44612.93
1737368306.140;118;20.00;44612.93
1737368306.190;118;20.00;44612.93
1737368306.240;121;20.00;45869.54
1737368306.291;118;20.00;44324.33
1737368306.341;118;20.00;44324.33
1737368306.391;118;20.00;44324.33
1737368306.441;122;20.00;46769.80
1737368306.491;120;20.00;45714.33
1737368306.541;120;20.00;45714.33
1737368306.591;120;20.00;45714.33
1737368306.641;110;20.00;39875.46
1737368306.691;114;20.00;42155.67
1737368306.742;114;20.00;42155.67
1737368306.792;114;20.00;42155.67
1737368306.842;105;20.00;37410.93
1737368306.893;115;20.00;42699.87
1737368306.942;115;20.00;42699.87
1737368306.992;115;20.00;42699.87
1737368307.094;118;20.00;44375.27
1737368307.143;118;20.00;44375.27
1737368307.194;118;20.00;44375.27
1737368307.244;103;20.00;36116.80
1737368307.294;103;20.00;36116.80
1737368307.344;103;20.00;36116.80
1737368307.394;121;20.00;46185.54
1737368307.444;109;20.00;39681.60
1737368307.493;109;20.00;39681.60
1737368307.545;109;20.00;39681.60
1737368307.594;107;20.00;38727.73
1737368307.647;104;20.00;36582.13
1737368307.695;104;20.00;36582.13
1737368307.745;104;20.00;36582.13
1737368307.795;121;20.00;46311.27
1737368307.845;110;20.00;39945.60
1737368307.896;110;20.00;39945.60
1737368307.946;110;20.00;39945.60
1737368307.996;119;20.00;44758.20
1737368308.046;121;20.00;46188.07
1737368308.097;121;20.00;46188.07
1737368308.146;121;20.00;46188.07
1737368308.197;115;20.00;42562.67
1737368308.246;120;20.00;45632.67
1737368308.296;120;20.00;45632.67
1737368308.346;120;20.00;45632.67
1737368308.396;120;20.00;45501.27
1737368308.446;121;20.00;45965.54
1737368308.497;121;20.00;45965.54
1737368308.547;121;20.00;45965.54
1737368308.597;108;20.00;39143.46
1737368308.647;116;20.00;43235.13
1737368308.697;116;20.00;43235.13
1737368308.748;116;20.00;43235.13
1737368308.797;122;20.00;46387.00
1737368308.847;120;20.00;45565.73
1737368308.899;120;20.00;45565.73
1737368308.950;120;20.00;45565.73
1737368308.999;123;20.00;47195.27
1737368309.049;113;20.00;41691.27
1737368309.099;106;20.00;38037.60
1737368309.148;106;20.00;38037.60
1737368309.198;106;20.00;38037.60
1737368309.248;106;20.00;37670.40
1737368309.298;113;20.00;41832.07
1737368309.348;113;20.00;41832.07
1737368309.400;113;20.00;41832.07
1737368309.449;122;20.00;46468.13
1737368309.500;124;20.00;47560.73
1737368309.550;124;20.00;47560.73
1737368309.600;124;20.00;47560.73
1737368309.650;122;20.00;46707.87
1737368309.700;122;20.00;46459.73
1737368309.750;122;20.00;46459.73
1737368309.800;122;20.00;46459.73
1737368309.850;118;20.00;44265.60
1737368309.900;118;20.00;44265.60
1737368309.949;118;20.00;44265.60
1737368310.000;118;20.00;44265.60
1737368310.050;120;20.00;45313.07
1737368310.100;119;20.00;45002.80
1737368310.150;119;20.00;45002.80
1737368310.201;119;20.00;45002.80
1737368310.250;114;20.00;42440.00
1737368310.300;117;20.00;43878.54
1737368310.351;117;20.00;43878.54
1737368310.401;117;20.00;43878.54
1737368310.451;111;20.00;40570.07
1737368310.501;110;20.00;40108.87
1737368444.526;200;15.25;40759.46
1737368444.576;200;14.57;37980.80
1737368444.626;200;14.57;37980.80
1737368444.675;200;14.57;37980.80
1737368444.725;200;15.58;42076.54
1737368444.776;200;15.58;42076.54
1737368444.826;200;15.58;42076.54
1737368444.876;200;14.83;39007.73
1737368444.926;200;15.53;41873.13
1737368444.976;200;15.53;41873.13
1737368445.026;200;15.53;41873.13
1737368445.076;200;14.45;37451.80
1737368445.126;200;15.63;42306.60
1737368445.176;200;15.63;42306.60
1737368445.226;200;15.63;42306.60
1737368445.276;200;14.92;39383.60
1737368445.325;200;15.23;40659.60
1737368445.376;200;15.23;40659.60
1737368445.425;200;15.23;40659.60
1737368445.476;200;14.87;39188.67
1737368445.525;200;15.56;42025.60
1737368445.576;200;15.56;42025.60
1737368445.625;200;15.56;42025.60
1737368445.676;200;15.84;43153.54
1737368445.725;200;15.84;43153.54
1737368445.776;200;15.84;43153.54
1737368445.826;200;15.83;43125.80
1737368445.876;200;14.79;38875.60
1737368445.926;200;14.79;38875.60
1737368445.976;200;14.79;38875.60
1737368446.026;200;16.07;44097.00
1737368446.076;200;15.89;43362.73
1737368446.125;200;15.89;43362.73
1737368446.176;200;14.25;36640.46
1737368446.226;200;15.07;39992.67
1737368446.276;200;15.07;39992.67
1737368446.326;200;15.07;39992.67
1737368446.376;200;15.99;43769.13
1737368446.427;200;14.28;36761.80
1737368446.476;200;14.19;36428.20
1737368446.526;200;14.19;36428.20
1737368446.577;200;14.70;38506.87
1737368446.627;200;15.48;41701.13
1737368446.677;200;15.50;41762.20
1737368446.727;200;15.50;41762.20
1737368446.777;200;15.50;41762.20
1737368446.828;200;14.99;39674.40
1737368446.879;200;14.87;39198.27
1737368446.929;200;14.87;39198.27
1737368446.979;200;14.87;39198.27
1737368447.028;200;14.56;37907.46
1737368447.078;200;14.48;37608.40
1737368447.128;200;14.48;37608.40
1737368447.179;200;14.33;36973.73
1737368447.229;200;16.30;45046.87
1737368447.279;200;16.30;45046.87
1737368447.328;200;16.30;45046.87
1737368447.379;200;14.87;39172.46
1737368447.429;200;16.00;43827.93
1737368447.478;200;16.00;43827.93
1737368447.529;200;16.00;43827.93
1737368447.580;200;16.81;47143.80
1737368447.630;200;15.97;43700.93
1737368447.679;200;15.97;43700.93
1737368447.730;200;15.97;43700.93
1737368447.780;200;15.69;42553.33
1737368447.830;200;15.70;42604.13
1737368447.880;200;15.70;42604.13
1737368447.930;200;15.70;42604.13
1737368447.980;200;14.80;38908.20
1737368448.030;200;16.17;44519.73
1737368448.080;200;16.17;44519.73
1737368448.129;200;16.17;44519.73
1737368448.180;200;16.32;45108.07
1737368448.229;200;15.48;41693.33
1737368448.280;200;15.48;41693.33
1737368448.330;200;15.48;41693.33
1737368448.379;200;14.26;36678.13
1737368460.477;200;14.56;37916.46
1737368460.527;200;14.22;36539.27
1737368460.577;200;14.22;36539.27
1737368460.627;200;14.22;36539.27
1737368460.677;200;15.15;40343.20
1737368460.727;200;15.15;40343.20
1737368460.777;200;15.15;40343.20
1737368460.827;200;15.15;40343.20
1737368460.877;200;15.46;41586.46
1737368460.927;200;14.35;37055.20
1737368460.978;200;14.35;37055.20
1737368461.028;200;14.35;37055.20
1737368461.077;200;15.84;43156.46
1737368461.127;200;15.55;41974.80
1737368461.178;200;15.55;41974.80
1737368461.228;200;15.55;41974.80
1737368461.278;200;15.51;41825.13
1737368461.328;200;15.51;41825.13
1737368461.378;200;15.51;41825.13
1737368461.428;200;16.70;46678.60
1737368461.478;200;15.92;43502.13
1737368461.528;200;15.92;43502.13
1737368461.578;200;15.69;42548.67
1737368461.628;200;16.92;47556.93
1737368461.678;200;16.92;47556.93
1737368461.729;200;16.92;47556.93
1737368461.778;200;16.35;45256.13
1737368461.828;200;14.49;37651.00
1737368461.878;200;14.20;36450.46
1737368461.929;200;14.20;36450.46
1737368461.979;200;13.88;35142.07
1737368462.029;200;13.98;35553.33
1737368462.078;200;13.98;35553.33
1737368462.129;200;13.98;35553.33
1737368462.178;200;13.93;35362.67
1737368462.229;200;14.83;39027.46
1737368462.279;200;13.92;35302.40
1737368462.329;200;13.92;35302.40
1737368462.379;200;13.92;35302.40
1737368462.429;200;14.91;39350.27
1737368462.479;200;15.95;43592.13
1737368462.529;200;15.95;43592.13
1737368462.579;200;15.95;43592.13
1737368462.628;200;16.91;47553.07
1737368462.679;200;15.92;43482.40
1737368462.729;200;15.92;43482.40
1737368462.778;200;15.92;43482.40
1737368462.829;200;15.50;41766.20
1737368462.879;200;14.12;36138.54
1737368462.929;200;14.12;36138.54
1737368462.980;200;14.12;36138.54
1737368463.029;200;16.30;45035.07
1737368463.080;200;16.49;45835.33
1737368463.129;200;16.49;45835.33
1737368463.180;200;16.49;45835.33
1737368463.230;200;14.43;37382.60
1737368463.279;200;15.67;42473.46
1737368463.330;200;15.67;42473.46
1737368463.380;200;15.67;42473.46
1737368463.430;200;13.89;35199.13
1737368463.479;200;13.89;35199.13
1737368463.529;200;13.89;35199.13
1737368463.579;200;14.42;37329.87
1737368463.630;200;14.30;36856.54
1737368463.679;200;14.30;36856.54
1737368463.729;200;14.30;36856.54
1737368463.779;200;15.85;43212.67
1737368463.830;200;15.61;42224.13
1737368463.880;200;15.61;42224.13
1737368463.930;200;15.61;42224.13
1737368463.980;200;14.45;37459.07
1737368464.030;200;15.03;39843.60
1737368464.080;200;14.02;35717.20
1737368464.130;200;14.02;35717.20
1737368464.180;200;14.02;35717.20
1737368464.230;200;16.16;44474.20
1737368464.280;200;16.62;46331.87
1737368464.330;200;16.62;46331.87
1737368464.380;200;16.62;46331.87
1737368464.430;200;14.48;37586.46
1737368464.481;200;16.16;44464.73
1737368464.531;200;16.16;44464.73
1737368464.581;200;16.16;44464.73
1737368464.631;200;16.44;45602.60
1737368464.680;200;15.67;42444.67
1737368464.731;200;15.67;42444.67
1737368464.781;200;15.67;42444.67
1737368464.830;200;16.32;45100.13
1737368476.130;200;14.72;38572.54
1737368476.180;200;14.72;38572.54
1737368476.230;200;14.72;38572.54
1737368476.280;200;16.68;46572.93
1737368476.330;200;15.76;42847.27
1737368476.380;200;15.76;42847.27
1737368476.430;200;15.76;42847.27
1737368476.480;200;14.45;37457.67
1737368476.530;200;15.52;41845.73
1737368476.580;200;15.52;41845.73
1737368476.630;200;15.52;41845.73
1737368476.680;200;15.81;43053.73
1737368476.731;200;14.38;37172.00
1737368476.780;200;14.38;37172.00
1737368476.831;200;14.38;37172.00
1737368476.880;200;15.03;39845.33
1737368476.930;200;15.54;41927.20
1737368476.980;200;15.55;41962.40
1737368477.031;200;15.55;41962.40
1737368477.081;200;15.55;41962.40
1737368477.131;200;16.74;46850.00
1737368477.181;200;16.11;44264.93
1737368477.231;200;16.11;44264.93
1737368477.281;200;16.11;44264.93
1737368477.331;200;16.41;45500.27
1737368477.381;200;14.61;38139.67
1737368477.431;200;14.61;38139.67
1737368477.481;200;14.61;38139.67
1737368477.531;200;16.54;46012.20
1737368477.581;200;16.70;46660.54
1737368477.632;200;16.70;46660.54
1737368477.682;200;16.70;46660.54
1737368477.732;200;15.26;40788.87
1737368477.782;200;16.54;46036.33
1737368477.831;200;16.54;46036.33
1737368477.881;200;16.54;46036.33
1737368477.932;200;15.00;39706.67
1737368477.982;200;14.91;39369.46
1737368478.032;200;14.91;39369.46
1737368478.082;200;14.86;39142.13
1737368478.132;200;15.05;39936.67
1737368478.182;200;14.28;36768.80
1737368478.233;200;14.28;36768.80
1737368478.283;200;14.28;36768.80
1737368478.333;200;14.66;38330.27
1737368478.383;200;16.19;44603.07
1737368478.433;200;16.19;44603.07
1737368478.483;200;16.19;44603.07
1737368478.583;200;16.42;45541.27
1737368478.633;200;16.42;45541.27
1737368478.682;200;16.42;45541.27
1737368478.733;200;14.86;39164.93
1737368478.783;200;16.48;45773.00
1737368478.834;200;16.48;45773.00
1737368478.884;200;16.48;45773.00
1737368478.935;200;16.64;46432.87
1737368478.985;200;14.30;36861.33
1737368479.035;200;14.30;36861.33
1737368479.085;200;14.90;39326.54
1737368479.135;200;15.32;41017.60
1737368479.184;200;15.51;41811.13
1737368479.235;200;15.51;41811.13
1737368479.335;200;14.53;37814.00
1737368479.384;200;14.19;36406.67
1737368479.435;200;14.19;36406.67
1737368479.485;200;15.43;41482.13
1737368479.536;200;15.63;42307.46
1737368479.585;200;15.63;42307.46
1737368479.636;200;15.63;42307.46
1737368479.686;200;14.52;37774.93
1737368479.737;200;14.33;36996.00
1737368479.786;200;14.33;36996.00
1737368479.836;200;14.33;36996.00
1737368479.887;200;14.02;35700.00
1737368479.937;200;15.94;43558.40
1737368479.987;200;15.94;43558.40
1737368480.037;200;15.94;43558.40
1737368480.086;200;14.68;38416.67
1737368480.137;200;14.68;38416.67
1737368480.187;200;14.68;38416.67
1737368480.236;200;14.68;38416.67
1737368480.287;200;16.75;46872.46
1737368480.337;200;16.75;46872.46
1737368480.387;200;16.75;46872.46
1737368480.437;200;15.73;42704.20
1737368480.487;200;15.73;42704.20
1737368480.537;200;15.73;42704.20
1737368480.588;200;14.93;39448.00
1737368480.639;200;16.30;45038.40
1737368480.689;200;16.30;45038.40
1737368480.738;200;16.30;45038.40
1737368480.788;200;14.96;39558.54
1737368480.838;200;16.60;46256.20
1737368480.888;200;16.60;46256.20
1737368480.938;200;16.60;46256.20
1737368480.988;200;16.86;47345.80
1737368616.889;106;40.00;37877.33
1737368616.939;106;40.00;37877.33
1737368616.988;106;40.00;37877.33
1737368617.038;117;40.00;43933.20
1737368617.089;117;40.00;43933.20
1737368617.138;117;40.00;43933.20
1737368617.189;122;40.00;46430.60
1737368617.239;121;40.00;45896.60
1737368617.289;121;40.00;45896.60
1737368617.339;121;40.00;45896.60
1737368617.388;123;40.00;47326.07
1737368617.438;110;40.00;40354.73
1737368617.489;110;40.00;40354.73
1737368617.538;110;40.00;40354.73
1737368617.589;118;40.00;44245.13
1737368617.638;118;40.00;44245.13
1737368617.689;118;40.00;44245.13
1737368617.739;113;40.00;41834.13
1737368617.789;113;40.00;41834.13
1737368617.839;113;40.00;41834.13
1737368617.889;126;40.00;48756.80
1737368617.938;102;40.00;35749.33
1737368617.989;102;40.00;35749.33
1737368618.039;102;40.00;35749.33
1737368618.089;102;40.00;35492.00
1737368618.139;123;40.00;47054.07
1737368618.189;123;40.00;47054.07
1737368618.238;123;40.00;47054.07
1737368618.289;104;40.00;36732.27
1737368618.339;115;40.00;42573.33
1737368618.388;115;40.00;42573.33
1737368618.439;115;40.00;42573.33
1737368618.489;101;40.00;35126.40
1737368618.539;115;40.00;42543.40
1737368618.589;115;40.00;42543.40
1737368618.639;115;40.00;42543.40
1737368618.689;120;40.00;45391.07
1737368618.739;128;40.00;50013.67
1737368618.790;128;40.00;50013.67
1737368618.839;128;40.00;50013.67
1737368618.889;129;40.00;50118.80
1737368618.940;102;40.00;35969.07
1737368618.989;102;40.00;35969.07
1737368619.040;102;40.00;35969.07
1737368619.090;124;40.00;47628.40
1737368619.140;118;40.00;44470.33
1737368619.191;107;40.00;38316.27
1737368619.240;107;40.00;38316.27
1737368619.290;107;40.00;38316.27
1737368619.342;121;40.00;46077.93
1737368619.391;121;40.00;46077.93
1737368619.441;121;40.00;46077.93
1737368619.491;111;40.00;40379.67
1737368619.543;109;40.00;39410.13
1737368619.593;123;40.00;46956.60
1737368619.643;123;40.00;46956.60
1737368619.693;123;40.00;46956.60
1737368619.742;102;40.00;35510.73
1737368619.793;102;40.00;35510.73
1737368619.842;102;40.00;35510.73
1737368619.892;125;40.00;47971.00
1737368619.944;104;40.00;36585.27
1737368619.993;104;40.00;36585.27
1737368620.043;104;40.00;36585.27
1737368620.093;102;40.00;35594.93
1737368620.143;101;40.00;35195.73
1737368620.194;101;40.00;35195.73
1737368620.243;101;40.00;35195.73
1737368620.294;102;40.00;35915.46
1737368620.343;104;40.00;36719.07
1737368620.393;104;40.00;36719.07
1737368620.443;104;40.00;36719.07
1737368620.494;130;40.00;50713.87
1737368620.544;106;40.00;37725.87
1737368620.594;106;40.00;37725.87
1737368620.643;106;40.00;37725.87
1737368620.695;105;40.00;37414.40
1737368620.744;102;40.00;35994.67
1737368620.795;115;40.00;42769.46
1737368620.844;115;40.00;42769.46
1737368620.894;115;40.00;42769.46
1737368620.945;101;40.00;35143.60
1737368620.996;107;40.00;38451.73
1737368621.045;107;40.00;38451.73
1737368621.095;110;40.00;40180.54
1737368621.145;120;40.00;45589.60
1737368621.195;120;40.00;45589.60
1737368621.245;120;40.00;45589.60
1737368621.296;106;40.00;37783.46
1737368621.345;117;40.00;43973.13
1737368632.387;105;40.00;37465.60
1737368632.437;105;40.00;37581.46
1737368632.487;105;40.00;37581.46
1737368632.537;105;40.00;37581.46
1737368632.587;117;40.00;43735.87
1737368632.637;117;40.00;43735.87
1737368632.688;117;40.00;43735.87
1737368632.739;103;40.00;36083.46
1737368632.789;103;40.00;36083.46
1737368632.839;103;40.00;36083.46
1737368632.889;101;40.00;35200.00
1737368632.939;107;40.00;38347.60
1737368632.989;107;40.00;38347.60
1737368633.039;107;40.00;38347.60
1737368633.089;101;40.00;35252.00
1737368633.138;101;40.00;35252.00
1737368633.188;101;40.00;35252.00
1737368633.239;103;40.00;36079.33
1737368633.289;130;40.00;50717.73
1737368633.339;130;40.00;50717.73
1737368633.389;130;40.00;50717.73
1737368633.439;116;40.00;43533.80
1737368633.489;127;40.00;49130.67
1737368633.540;127;40.00;49130.67
1737368633.589;120;40.00;45611.93
1737368633.640;104;40.00;36807.20
1737368633.690;104;40.00;36807.20
1737368633.741;104;40.00;36807.20
1737368633.791;118;40.00;44513.54
1737368633.841;126;40.00;48571.87
1737368633.891;106;40.00;38129.87
1737368633.941;106;40.00;38129.87
1737368633.991;106;40.00;38129.87
1737368634.042;123;40.00;46899.73
1737368634.092;108;40.00;39189.20
1737368634.143;108;40.00;39189.20
1737368634.193;111;40.00;40415.93
1737368634.243;102;40.00;35977.87
1737368634.293;102;40.00;35817.60
1737368634.343;102;40.00;35817.60
1737368634.393;131;40.00;51713.20
1737368634.443;101;40.00;35473.73
1737368634.493;101;40.00;35473.73
1737368634.544;101;40.00;35473.73
1737368634.594;111;40.00;40668.73
1737368634.644;111;40.00;40668.73
1737368634.694;111;40.00;40668.73
1737368634.744;102;40.00;35832.13
1737368634.794;104;40.00;37047.46
1737368634.844;104;40.00;37047.46
1737368634.893;104;40.00;36794.00
1737368634.944;103;40.00;36448.00
1737368634.994;103;40.00;36448.00
1737368635.045;103;40.00;36448.00
1737368635.245;116;40.00;43111.27
1737368635.295;102;40.00;35800.40
1737368635.345;102;40.00;35800.40
1737368635.396;102;40.00;35800.40
1737368635.446;103;40.00;36377.46
1737368635.495;103;40.00;36377.46
1737368635.546;103;40.00;36377.46
1737368635.596;122;40.00;46523.40
1737368635.645;123;40.00;47336.80
1737368635.696;123;40.00;47336.80
1737368635.746;123;40.00;47336.80
1737368635.796;102;40.00;35932.27
1737368635.846;102;40.00;35932.27
1737368635.895;102;40.00;35932.27
1737368635.946;102;40.00;35932.27
1737368635.996;106;40.00;37674.40
1737368636.046;106;40.00;37674.40
1737368636.096;106;40.00;37674.40
1737368636.146;106;40.00;37674.40
1737368636.196;124;40.00;47413.46
1737368636.246;124;40.00;47413.46
1737368636.296;124;40.00;47413.46
1737368636.396;111;40.00;40812.80
1737368636.446;111;40.00;40812.80
1737368636.496;111;40.00;40812.80
1737368636.547;125;40.00;48433.00
1737368636.596;125;40.00;48433.00
1737368636.646;125;40.00;48433.00
1737368636.697;130;40.00;51003.67
1737368636.747;126;40.00;48925.40
1737368647.800;112;40.00;40932.93
1737368647.850;112;40.00;40932.93
1737368647.900;102;40.00;35725.93
1737368647.951;105;40.00;37155.20
1737368648.000;105;40.00;37155.20
1737368648.050;105;40.00;37155.20
1737368648.100;111;40.00;40703.80
1737368648.150;111;40.00;40703.80
1737368648.201;111;40.00;40703.80
1737368648.250;101;40.00;35432.27
1737368648.301;119;40.00;44841.00
1737368648.350;119;40.00;44841.00
1737368648.401;114;40.00;42506.13
1737368648.451;127;40.00;49414.07
1737368648.501;127;40.00;49414.07
1737368648.551;127;40.00;49414.07
1737368648.604;121;40.00;45904.60
1737368648.652;101;40.00;35416.54
1737368648.702;101;40.00;35416.54
1737368648.753;101;40.00;35416.54
1737368648.802;114;40.00;42286.20
1737368648.852;114;40.00;42286.20
1737368648.903;114;40.00;42286.20
1737368648.952;102;40.00;35714.93
1737368649.003;105;40.00;37236.80
1737368649.053;105;40.00;37236.80
1737368649.103;129;40.00;50542.54
1737368649.154;129;40.00;50542.54
1737368649.203;129;40.00;50542.54
1737368649.254;130;40.00;50718.40
1737368649.304;130;40.00;50718.40
1737368649.354;130;40.00;50718.40
1737368649.404;102;40.00;35618.13
1737368649.454;102;40.00;35618.13
1737368649.504;102;40.00;35618.13
1737368649.556;102;40.00;35794.40
1737368649.606;131;40.00;51542.54
1737368649.656;131;40.00;51542.54
1737368649.707;131;40.00;51542.54
1737368649.757;129;40.00;50160.67
1737368649.806;132;40.00;52001.40
1737368649.857;132;40.00;52001.40
1737368649.907;109;40.00;39410.33
1737368649.957;119;40.00;44796.27
1737368650.007;119;40.00;44861.87
1737368650.057;119;40.00;44861.87
1737368650.107;102;40.00;35804.80
1737368650.307;126;40.00;48549.00
1737368650.357;120;40.00;45529.20
1737368650.407;120;40.00;45529.20
1737368650.458;120;40.00;45529.20
1737368650.508;120;40.00;45529.20
1737368650.558;114;40.00;42153.46
1737368650.607;114;40.00;42153.46
1737368650.659;114;40.00;42153.46
1737368650.714;104;40.00;36956.00
1737368650.761;117;40.00;43938.07
1737368650.811;122;40.00;46476.46
1737368650.862;122;40.00;46476.46
1737368650.912;108;40.00;39091.80
1737368650.962;102;40.00;35563.73
1737368651.012;102;40.00;35912.00
1737368651.063;102;40.00;35912.00
1737368651.113;124;40.00;47571.00
1737368651.162;116;40.00;43483.87
1737368651.213;115;40.00;43003.07
1737368651.263;115;40.00;43003.07
1737368651.313;113;40.00;41467.80
1737368651.364;124;40.00;47643.73
1737368651.413;124;40.00;47643.73
1737368651.464;124;40.00;47643.73
1737368651.513;101;40.00;35319.73
1737368651.564;106;40.00;38083.40
1737368651.614;106;40.00;38083.40
1737368651.665;106;40.00;38083.40
1737368651.714;115;40.00;42885.93
1737368651.765;102;40.00;35638.40
1737368651.815;101;40.00;35441.87
1737368651.865;101;40.00;35441.87
1737368651.915;105;40.00;37173.54
1737368651.965;101;40.00;35145.33
1737368786.861;50;14.50;37677.00
1737368786.911;50;14.23;36552.27
1737368786.961;50;14.23;36552.27
1737368787.011;50;14.61;38144.27
1737368787.061;50;15.06;39962.80
1737368787.111;50;14.28;36782.54
1737368787.161;50;14.28;36782.54
1737368787.211;50;16.82;47172.13
1737368787.261;50;15.40;41349.87
1737368787.311;50;15.40;41349.87
1737368787.361;50;15.40;41349.87
1737368787.411;50;15.01;39768.54
1737368787.460;50;15.01;39768.54
1737368787.512;50;15.01;39768.54
1737368787.561;50;15.01;39768.54
1737368787.611;50;16.60;46247.87
1737368787.662;50;16.60;46247.87
1737368787.712;50;16.60;46247.87
1737368787.762;50;14.49;37629.80
1737368787.812;50;14.49;37629.80
1737368787.862;50;14.49;37629.80
1737368787.912;50;16.21;44670.46
1737368787.962;50;14.69;38457.33
1737368788.011;50;14.69;38457.33
1737368788.062;50;14.69;38457.33
1737368788.111;50;14.60;38086.73
1737368788.162;50;15.16;40375.67
1737368788.211;50;15.16;40375.67
1737368788.261;50;15.16;40375.67
1737368788.312;50;15.02;39818.73
1737368788.362;50;15.02;39818.73
1737368788.412;50;15.02;39818.73
1737368788.462;50;15.02;39818.73
1737368788.512;50;15.21;40561.73
1737368788.562;50;15.21;40561.73
1737368788.612;50;15.21;40561.73
1737368788.662;50;15.21;40561.73
1737368788.712;50;16.19;44596.93
1737368788.762;50;16.19;44596.93
1737368788.812;50;16.19;44596.93
1737368788.862;50;16.26;44855.60
1737368788.912;50;16.26;44855.60
1737368788.962;50;16.26;44855.60
1737368789.013;50;15.83;43118.00
1737368789.063;50;16.09;44186.40
1737368789.112;50;16.09;44186.40
1737368789.163;50;16.09;44186.40
1737368789.212;50;16.35;45235.33
1737368789.262;50;15.35;41142.67
1737368789.313;50;15.35;41142.67
1737368789.363;50;15.35;41142.67
1737368789.413;50;15.33;41072.67
1737368789.463;50;14.62;38171.33
1737368789.513;50;14.62;38171.33
1737368789.563;50;14.62;38171.33
1737368789.613;50;15.02;39797.13
1737368789.664;50;16.46;45707.33
1737368789.714;50;16.46;45707.33
1737368789.764;50;16.46;45707.33
1737368789.814;50;15.05;39931.87
1737368789.864;50;14.69;38458.27
1737368789.913;50;14.69;38458.27
1737368789.964;50;14.69;38458.27
1737368790.013;50;16.73;46790.80
1737368790.063;50;14.84;39080.73
1737368790.114;50;14.84;39080.73
1737368790.165;50;14.84;39080.73
1737368790.215;50;15.81;43050.27
1737368790.265;50;15.24;40722.27
1737368790.315;50;15.24;40722.27
1737368790.365;50;15.24;40722.27
1737368790.414;50;15.94;43554.07
1737368790.465;50;15.76;42812.40
1737368790.515;50;15.76;42812.40
1737368790.565;50;15.76;42812.40
1737368790.615;50;14.72;38568.93
1737368790.665;50;14.86;39146.20
1737368790.715;50;14.86;39146.20
1737368790.765;50;14.86;39146.20
1737368790.816;50;14.09;36013.67
1737368790.866;50;14.09;36013.67
1737368790.915;50;14.09;36013.67
1737368790.967;50;14.67;38363.46
1737368801.761;50;15.27;40824.54
1737368801.811;50;15.27;40824.54
1737368801.861;50;15.27;40824.54
1737368801.911;50;14.02;35732.40
1737368801.962;50;14.02;35732.40
1737368802.011;50;14.02;35732.40
1737368802.062;50;16.02;43894.13
1737368802.111;50;15.96;43644.27
1737368802.162;50;15.96;43644.27
1737368802.212;50;13.95;35418.67
1737368802.263;50;14.76;38752.54
1737368802.312;50;14.76;38752.54
1737368802.362;50;14.76;38752.54
1737368802.412;50;15.00;39737.67
1737368802.462;50;14.69;38444.13
1737368802.513;50;14.69;38444.13
1737368802.563;50;14.69;38444.13
1737368802.613;50;15.55;41987.13
1737368802.664;50;14.14;36205.00
1737368802.714;50;14.14;36205.00
1737368802.764;50;14.14;36205.00
1737368802.814;50;15.64;42330.07
1737368802.864;50;14.40;37283.33
1737368802.914;50;14.40;37283.33
1737368802.964;50;14.40;37283.33
1737368803.014;50;16.44;45596.13
1737368803.063;50;15.66;42415.00
1737368803.113;50;15.66;42415.00
1737368803.164;50;15.66;42415.00
1737368803.213;50;17.50;49940.07
1737368803.264;50;15.60;42169.46
1737368803.314;50;15.60;42169.46
1737368803.364;50;15.60;42169.46
1737368803.414;50;15.64;42320.46
1737368803.464;50;15.18;40450.60
1737368803.514;50;15.18;40450.60
1737368803.564;50;15.18;40450.60
1737368803.614;50;14.06;35886.67
1737368803.665;50;15.22;40630.87
1737368803.714;50;16.10;44240.67
1737368803.765;50;16.10;44240.67
1737368803.815;50;14.09;35986.40
1737368803.865;50;15.12;40215.40
1737368803.914;50;14.41;37290.93
1737368803.965;50;14.41;37290.93
1737368804.014;50;14.41;37290.93
1737368804.066;50;15.89;43346.54
1737368804.115;50;16.33;45159.00
1737368804.165;50;16.33;45159.00
1737368804.215;50;16.33;45159.00
1737368804.266;50;16.19;44606.46
1737368804.315;50;16.64;46437.13
1737368804.365;50;16.64;46437.13
1737368804.415;50;15.56;42001.20
1737368804.465;50;15.37;41226.40
1737368804.516;50;15.37;41226.40
1737368804.565;50;15.37;41226.40
1737368804.615;50;14.15;36246.67
1737368804.665;50;16.16;44460.07
1737368804.715;50;16.16;44460.07
1737368804.765;50;16.16;44460.07
1737368804.815;50;16.97;47798.40
1737368804.865;50;16.40;45452.20
1737368804.916;50;16.40;45452.20
1737368804.966;50;16.40;45452.20
1737368805.015;50;15.84;43142.40
1737368805.065;50;15.84;43142.40
1737368805.116;50;15.84;43142.40
1737368805.167;50;16.11;44258.00
1737368805.216;50;15.41;41407.33
1737368805.268;50;15.41;41407.33
1737368805.317;50;15.41;41407.33
1737368805.369;50;14.79;38868.54
1737368805.419;50;16.13;44343.33
1737368805.468;50;16.13;44343.33
1737368805.518;50;15.62;42263.13
1737368805.569;50;14.48;37585.07
1737368805.619;50;14.48;37585.07
1737368805.668;50;14.48;37585.07
1737368816.138;50;14.72;38563.73
1737368816.187;50;14.55;37889.87
1737368816.237;50;14.55;37889.87
1737368816.288;50;14.55;37889.87
1737368816.339;50;13.93;35357.07
1737368816.388;50;13.93;35357.07
1737368816.438;50;13.93;35357.07
1737368816.489;50;16.24;44774.93
1737368816.539;50;16.24;44774.93
1737368816.588;50;16.24;44774.93
1737368816.639;50;16.65;46481.73
1737368816.689;50;16.65;46481.73
1737368816.738;50;16.65;46481.73
1737368816.789;50;15.08;40044.80
1737368816.839;50;15.08;40044.80
1737368816.889;50;15.08;40044.80
1737368816.940;50;15.97;43693.33
1737368816.989;50;14.27;36728.20
1737368817.040;50;14.27;36728.20
1737368817.090;50;14.27;36728.20
1737368817.140;50;16.43;45587.33
1737368817.189;50;16.43;45587.33
1737368817.240;50;16.43;45587.33
1737368817.290;50;16.71;46724.20
1737368817.341;50;16.71;46724.20
1737368817.391;50;16.71;46724.20
1737368817.441;50;14.90;39326.80
1737368817.490;50;16.14;44393.27
1737368817.541;50;16.14;44393.27
1737368817.592;50;16.14;44393.27
1737368817.641;50;16.87;47383.07
1737368817.692;50;16.61;46310.87
1737368817.742;50;16.61;46310.87
1737368817.792;50;16.70;46686.27
1737368817.843;50;15.51;41810.07
1737368817.893;50;15.51;41810.07
1737368817.943;50;15.51;41810.07
1737368817.993;50;16.27;44913.60
1737368818.044;50;16.27;44913.60
1737368818.094;50;16.27;44913.60
1737368818.144;50;16.15;44420.00
1737368818.194;50;16.15;44420.00
1737368818.244;50;16.15;44420.00
1737368818.293;50;15.02;39816.13
1737368818.343;50;15.78;42901.73
1737368818.393;50;15.78;42901.73
1737368818.444;50;15.78;42901.73
1737368818.494;50;14.48;37611.46
1737368818.543;50;14.48;37611.46
1737368818.594;50;14.48;37611.46
1737368818.644;50;15.55;41990.00
1737368818.693;50;14.98;39652.73
1737368818.743;50;14.98;39652.73
1737368818.793;50;14.98;39652.73
1737368818.843;50;16.20;44613.40
1737368818.893;50;16.20;44613.40
1737368818.944;50;16.20;44613.40
1737368818.993;50;15.23;40669.27
1737368819.044;50;15.81;43023.67
1737368819.093;50;15.81;43023.67
1737368819.143;50;14.85;39096.00
1737368819.194;50;15.32;41016.00
1737368819.244;50;15.32;41016.00
1737368819.294;50;15.12;40225.73
1737368819.344;50;15.40;41346.54
1737368819.394;50;15.40;41346.54
1737368819.444;50;15.40;41346.54
1737368819.493;50;14.50;37681.20
1737368819.543;50;14.50;37681.20
1737368819.594;50;14.50;37681.20
1737368819.644;50;15.79;42958.60
1737368819.694;50;15.66;42421.20
1737368819.744;50;15.66;42421.20
1737368819.794;50;15.66;42421.20
1737368819.844;50;17.39;49482.46
1737368819.894;50;16.60;46250.46
1737368819.944;50;16.60;46250.46
1737368819.994;50;15.19;40516.54
1737368820.044;50;15.78;42925.67
1737368820.094;50;15.78;42925.67
1737368820.145;50;15.78;42925.67
1737368820.194;50;15.66;42407.73
1737368820.244;50;15.66;42407.73
1737368820.295;50;15.66;42407.73
1737368820.344;50;14.48;37592.54
