UnixTimestamp;Microseconds;MilliAmpere;BaseValue
1725968211.690;500;1.00
1725968211.738;500;1.00
1725968211.788;500;1.00
1725968211.838;500;1.00
1725968211.889;500;1.00
1725968211.938;500;1.00
1725968211.989;500;1.00
1725968212.039;500;1.00
1725968212.088;500;1.00
1725968212.139;500;1.00
1725968212.189;500;1.00
1725968212.239;500;1.00
1725968216.173;1;40.00
1725968216.223;1;40.00
1725968216.274;1;40.00
1725968216.323;1;40.00
1725968216.374;1;40.00
1725968216.425;1;40.00
1725968216.475;1;40.00
1725968216.525;1;40.00
1725968216.575;1;40.00
1725968216.624;1;40.00
1725968216.675;1;40.00
1725968216.726;1;40.00
1725968216.775;1;40.00
1725968216.826;1;40.00
1725968216.876;1;40.00
1725968216.925;1;40.00
1725968216.976;1;40.00
1725968448.454;58;10.00;34767.60
1725968448.505;58;10.00;34767.60
1725968448.555;53;10.00;35752.87
1725968448.605;58;10.00;34744.80
1725968448.655;58;10.00;34744.80
1725968448.705;58;10.00;34744.80
1725968448.756;45;10.00;37142.54
1725968448.807;43;10.00;37557.00
1725968448.857;43;10.00;37557.00
1725968448.907;43;10.00;37557.00
1725968448.957;35;10.00;39097.93
1725968449.007;35;10.00;39097.93
1725968449.057;35;10.00;39097.93
1725968449.107;43;10.00;37654.54
1725968449.157;50;10.00;36330.60
1725968449.207;50;10.00;36330.60
1725968449.258;49;10.00;36353.20
1725968449.308;32;10.00;39561.20
1725968449.358;32;10.00;39561.20
1725968449.407;32;10.00;39561.20
1725968449.458;51;10.00;36034.93
1725968449.508;50;10.00;36304.46
1725968449.558;50;10.00;36304.46
1725968449.607;50;10.00;36304.46
1725968449.659;35;10.00;39066.33
1725968449.709;35;10.00;39066.33
1725968449.760;35;10.00;39066.33
1725968449.809;35;10.00;39066.33
1725968449.860;28;10.00;40458.13
1725968449.910;28;10.00;40458.13
1725968449.960;28;10.00;40458.13
1725968450.011;32;10.00;39631.73
1725968450.061;40;10.00;38071.20
1725968450.110;40;10.00;38071.20
1725968450.160;40;10.00;38139.46
1725968450.211;49;10.00;36365.40
1725968450.261;33;10.00;39368.54
1725968450.311;33;10.00;39368.54
1725968450.361;33;10.00;39368.54
1725968450.411;51;10.00;36120.67
1725968450.461;39;10.00;38267.80
1725968450.511;39;10.00;38267.80
1725968450.561;39;10.00;38267.80
1725968450.611;44;10.00;37451.46
1725968450.662;42;10.00;37840.00
1725968450.712;42;10.00;37840.00
1725968450.762;47;10.00;36826.67
1725968450.813;41;10.00;37901.93
1725968450.862;41;10.00;37901.93
1725968450.913;41;10.00;37901.93
1725968450.962;50;10.00;36295.00
1725968451.014;48;10.00;36654.07
1725968451.064;48;10.00;36654.07
1725968451.114;48;10.00;36654.07
1725968451.163;44;10.00;37363.80
1725968451.213;44;10.00;37363.80
1725968451.264;44;10.00;37363.80
1725968451.314;37;10.00;38683.67
1725968451.364;35;10.00;39043.00
1725968451.414;35;10.00;39043.00
1725968451.464;35;10.00;39043.00
1725968451.514;39;10.00;38306.13
1725968451.563;39;10.00;38306.13
1725968451.614;39;10.00;38306.13
1725968451.664;40;10.00;38170.40
1725968451.714;38;10.00;38426.00
1725968451.763;38;10.00;38426.00
1725968451.813;38;10.00;38426.00
1725968451.864;40;10.00;38075.27
1725968451.915;27;10.00;40633.93
1725968451.964;27;10.00;40633.93
1725968452.014;27;10.00;40633.93
1725968452.066;50;10.00;36165.60
1725968452.117;50;10.00;36165.60
1725968452.166;50;10.00;36165.60
1725968452.218;50;10.00;36165.60
1725968452.267;40;10.00;38172.33
1725968452.317;40;10.00;38172.33
1725968452.368;40;10.00;38172.33
1725968452.417;40;10.00;38172.33
1725968452.467;31;10.00;39811.93
1725968452.517;31;10.00;39811.93
1725968452.567;31;10.00;39811.93
1725968452.617;43;10.00;37562.00
1725968452.668;43;10.00;37496.20
1725968452.717;43;10.00;37496.20
1725968452.767;43;10.00;37496.20
1725968452.818;45;10.00;37223.80
1725968463.692;58;10.00;34803.87
1725968463.742;58;10.00;34803.87
1725968463.793;58;10.00;34803.87
1725968463.992;52;10.00;35922.67
1725968464.044;53;10.00;35656.13
1725968464.094;53;10.00;35656.13
1725968464.145;54;10.00;35478.27
1725968464.195;38;10.00;38434.27
1725968464.245;38;10.00;38434.27
1725968464.296;38;10.00;38434.27
1725968464.345;51;10.00;36085.73
1725968464.395;33;10.00;39460.87
1725968464.445;33;10.00;39460.87
1725968464.496;33;10.00;39460.87
1725968464.545;33;10.00;39365.00
1725968464.596;33;10.00;39365.00
1725968464.645;33;10.00;39365.00
1725968464.696;38;10.00;38536.93
1725968464.745;41;10.00;37907.33
1725968464.796;41;10.00;37907.33
1725968464.846;41;10.00;37907.33
1725968464.896;33;10.00;39362.80
1725968464.946;37;10.00;38709.20
1725968464.996;37;10.00;38709.20
1725968465.046;37;10.00;38709.20
1725968465.096;42;10.00;37693.13
1725968465.145;47;10.00;36769.73
1725968465.196;47;10.00;36769.73
1725968465.247;51;10.00;36105.93
1725968465.297;27;10.00;40563.33
1725968465.346;36;10.00;38793.00
1725968465.402;36;10.00;38793.00
1725968465.450;40;10.00;38156.93
1725968465.499;40;10.00;38185.87
1725968465.549;40;10.00;38185.87
1725968465.599;40;10.00;38185.87
1725968465.649;41;10.00;38011.80
1725968465.700;48;10.00;36697.73
1725968465.749;48;10.00;36697.73
1725968465.800;33;10.00;39430.93
1725968465.849;51;10.00;36116.27
1725968465.900;51;10.00;36116.27
1725968465.949;54;10.00;35482.54
1725968466.000;24;10.00;41171.33
1725968466.049;24;10.00;41171.33
1725968466.099;24;10.00;41171.33
1725968466.149;34;10.00;39170.67
1725968466.201;46;10.00;37026.13
1725968466.251;46;10.00;37026.13
1725968466.301;46;10.00;37026.13
1725968466.350;32;10.00;39648.67
1725968466.401;32;10.00;39648.67
1725968466.451;32;10.00;39648.67
1725968466.501;42;10.00;37750.54
1725968466.551;46;10.00;37087.40
1725968466.601;46;10.00;37087.40
1725968466.652;50;10.00;36168.60
1725968466.702;37;10.00;38762.87
1725968466.752;27;10.00;40523.13
1725968466.803;27;10.00;40523.13
1725968466.853;36;10.00;38902.93
1725968466.902;44;10.00;37401.00
1725968466.953;32;10.00;39582.13
1725968467.003;32;10.00;39582.13
1725968467.053;37;10.00;38678.46
1725968467.103;30;10.00;40077.46
1725968467.152;30;10.00;40077.46
1725968467.204;30;10.00;40077.46
1725968467.253;29;10.00;40159.93
1725968467.304;48;10.00;36570.87
1725968467.353;48;10.00;36570.87
1725968467.404;38;10.00;38585.54
1725968467.454;46;10.00;36953.67
1725968467.503;46;10.00;36953.67
1725968467.554;46;10.00;36953.67
1725968467.604;30;10.00;40005.27
1725968467.654;47;10.00;36789.07
1725968467.704;47;10.00;36789.07
1725968467.753;55;10.00;35279.33
1725968467.804;33;10.00;39490.33
1725968467.854;33;10.00;39490.33
1725968467.904;42;10.00;37824.87
1725968467.953;45;10.00;37109.33
1725968468.004;45;10.00;37109.33
1725968468.054;45;10.00;37109.33
1725968468.103;52;10.00;35960.27
1725968480.248;59;10.00;34471.73
1725968480.447;44;10.00;37320.93
1725968480.597;58;10.00;34720.07
1725968480.647;41;10.00;37862.60
1725968480.697;41;10.00;37862.60
1725968480.748;41;10.00;37862.60
1725968480.797;53;10.00;35756.13
1725968480.848;44;10.00;37388.60
1725968480.897;44;10.00;37388.60
1725968480.947;44;10.00;37388.60
1725968480.998;40;10.00;38101.07
1725968481.047;29;10.00;40242.07
1725968481.098;46;10.00;37052.54
1725968481.148;46;10.00;37052.54
1725968481.199;41;10.00;37957.67
1725968481.249;41;10.00;38034.13
1725968481.299;37;10.00;38648.80
1725968481.350;37;10.00;38648.80
1725968481.399;44;10.00;37338.46
1725968481.450;41;10.00;37987.80
1725968481.500;52;10.00;35897.87
1725968481.550;52;10.00;35897.87
1725968481.601;52;10.00;35897.87
1725968481.650;57;10.00;34961.40
1725968481.702;47;10.00;36829.80
1725968481.751;47;10.00;36829.80
1725968481.801;47;10.00;36829.80
1725968481.851;40;10.00;38224.67
1725968481.902;36;10.00;38874.67
1725968481.952;36;10.00;38874.67
1725968482.001;36;10.00;38874.67
1725968482.052;55;10.00;35309.67
1725968482.102;49;10.00;36431.13
1725968482.152;49;10.00;36431.13
1725968482.202;34;10.00;39317.33
1725968482.252;39;10.00;38231.27
1725968482.303;43;10.00;37525.33
1725968482.353;43;10.00;37525.33
1725968482.403;45;10.00;37106.40
1725968482.453;40;10.00;38174.46
1725968482.502;46;10.00;36939.40
1725968482.553;46;10.00;36939.40
1725968482.602;45;10.00;37156.54
1725968482.653;43;10.00;37541.00
1725968482.703;35;10.00;39009.67
1725968482.753;35;10.00;39009.67
1725968482.803;33;10.00;39380.46
1725968482.852;29;10.00;40183.20
1725968482.903;28;10.00;40305.46
1725968482.952;28;10.00;40305.46
1725968483.003;28;10.00;40305.46
1725968483.053;47;10.00;36730.40
1725968483.103;44;10.00;37306.80
1725968483.153;44;10.00;37306.80
1725968483.203;44;10.00;37306.80
1725968483.253;27;10.00;40532.13
1725968483.303;29;10.00;40283.13
1725968483.353;29;10.00;40283.13
1725968483.403;41;10.00;38007.46
1725968483.453;39;10.00;38246.27
1725968483.504;32;10.00;39672.20
1725968483.553;32;10.00;39672.20
1725968483.603;43;10.00;37537.46
1725968483.653;44;10.00;37327.07
1725968483.703;39;10.00;38367.13
1725968483.753;39;10.00;38367.13
1725968483.803;49;10.00;36360.80
1725968483.853;36;10.00;38862.73
1725968483.903;52;10.00;35830.73
1725968483.953;52;10.00;35830.73
1725968484.003;41;10.00;37880.87
1725968484.053;46;10.00;37033.33
1725968484.103;51;10.00;36135.60
1725968484.154;51;10.00;36135.60
1725968484.204;51;10.00;36135.60
1725968484.255;51;10.00;36135.60
1725968484.305;50;10.00;36296.40
1725968484.355;58;10.00;34669.60
1725968484.405;58;10.00;34669.60
1725968484.455;58;10.00;34669.60
1725968484.506;44;10.00;37458.60
1725968484.555;29;10.00;40183.13
1725968484.606;29;10.00;40183.13
1725968484.655;29;10.00;40183.13
1725968484.705;30;10.00;40104.73
1725968484.755;36;10.00;38903.80
1725968484.805;36;10.00;38903.80
1725968484.855;36;10.00;38903.80
1725968484.906;48;10.00;36594.80
1725968484.956;48;10.00;36594.80
1725968485.005;48;10.00;36594.80
1725968485.055;48;10.00;36594.80
1725968485.106;39;10.00;38396.07
1725968485.155;32;10.00;39597.93
1725968485.206;32;10.00;39597.93
1725968485.256;32;10.00;39597.93
1725968485.306;41;10.00;37975.67
1725968485.355;37;10.00;38722.00
1725968485.405;55;10.00;35279.73
1725968485.455;55;10.00;35279.73
1725968485.505;55;10.00;35279.73
1725968485.556;56;10.00;35159.93
1725968485.605;30;10.00;39987.93
1725968485.655;30;10.00;39987.93
1725968485.706;30;10.00;39987.93
1725968485.755;43;10.00;37496.07
1725968682.307;200;14.18;34225.20
1725968682.358;200;14.18;34225.20
1725968682.408;200;14.18;34225.20
1725968682.458;200;14.22;34290.00
1725968682.508;200;17.79;40172.80
1725968682.557;200;17.79;40172.80
1725968682.609;200;17.79;40172.80
1725968682.658;200;18.03;40573.33
1725968682.708;200;14.55;34832.27
1725968682.758;200;14.55;34832.27
1725968682.808;200;14.91;35426.54
1725968682.858;200;15.23;35952.13
1725968682.910;200;15.23;35952.13
1725968682.960;200;15.23;35952.13
1725968683.009;200;16.61;38238.27
1725968683.060;200;17.59;39845.13
1725968683.110;200;17.59;39845.13
1725968683.160;200;17.59;39845.13
1725968683.210;200;17.39;39511.80
1725968683.260;200;17.63;39909.13
1725968683.310;200;15.36;36167.33
1725968683.360;200;15.36;36167.33
1725968683.410;200;15.36;36167.33
1725968683.459;200;17.30;39367.13
1725968683.510;200;17.98;40488.27
1725968683.560;200;17.98;40488.27
1725968683.610;200;17.73;40083.93
1725968683.660;200;15.04;35643.60
1725968683.710;200;15.87;37011.33
1725968683.760;200;15.87;37011.33
1725968683.810;200;15.87;37011.33
1725968683.861;200;15.59;36551.13
1725968683.911;200;17.19;39186.13
1725968683.961;200;17.19;39186.13
1725968684.011;200;17.19;39186.13
1725968684.061;200;17.54;39774.54
1725968684.111;200;16.47;37999.00
1725968684.161;200;16.47;37999.00
1725968684.212;200;16.47;37999.00
1725968684.261;200;17.65;39945.40
1725968684.311;200;17.01;38898.60
1725968684.362;200;17.01;38898.60
1725968684.411;200;17.01;38898.60
1725968684.462;200;17.82;40221.80
1725968684.512;200;16.56;38155.40
1725968684.562;200;16.56;38155.40
1725968684.611;200;16.56;38155.40
1725968684.662;200;16.75;38464.20
1725968684.711;200;17.31;39389.20
1725968684.762;200;17.31;39389.20
1725968684.812;200;17.31;39389.20
1725968684.862;200;16.93;38759.33
1725968684.912;200;15.51;36411.46
1725968684.962;200;15.51;36411.46
1725968685.012;200;15.87;37007.00
1725968685.062;200;15.89;37039.54
1725968685.112;200;14.78;35208.40
1725968685.162;200;14.78;35208.40
1725968685.212;200;17.75;40111.80
1725968685.262;200;18.48;41318.27
1725968685.313;200;18.48;41318.27
1725968685.363;200;18.48;41318.27
1725968685.413;200;17.43;39581.93
1725968685.463;200;15.61;36584.73
1725968685.512;200;15.61;36584.73
1725968685.563;200;15.61;36584.73
1725968685.614;200;15.85;36985.73
1725968685.664;200;16.78;38512.93
1725968685.714;200;18.12;40717.00
1725968685.764;200;18.12;40717.00
1725968685.813;200;18.29;41004.87
1725968685.864;200;15.82;36922.13
1725968685.914;200;15.83;36945.73
1725968685.963;200;15.83;36945.73
1725968686.014;200;15.83;36945.73
1725968686.064;200;17.71;40050.87
1725968686.114;200;18.04;40600.73
1725968686.164;200;18.04;40600.73
1725968686.213;200;17.87;40316.13
1725968686.264;200;17.50;39697.27
1725968686.314;200;15.25;35987.33
1725968686.364;200;15.25;35987.33
1725968686.414;200;15.25;35987.33
1725968686.464;200;16.57;38166.87
1725968686.514;200;16.34;37782.80
1725968686.565;200;16.34;37782.80
1725968686.614;200;16.34;37782.80
1725968686.664;200;18.06;40621.93
1725968686.715;200;18.25;40939.93
1725968686.764;200;18.25;40939.93
1725968686.815;200;18.25;40939.93
1725968686.865;200;18.13;40737.87
1725968686.915;200;17.99;40507.07
1725968686.965;200;17.99;40507.07
1725968687.015;200;17.99;40507.07
1725968687.065;200;18.06;40620.87
1725968687.115;200;14.87;35354.07
1725968687.165;200;14.87;35354.07
1725968687.215;200;14.87;35354.07
1725968687.266;200;17.96;40466.80
1725968687.315;200;18.15;40767.60
1725968687.366;200;18.15;40767.60
1725968687.415;200;18.15;40767.60
1725968687.465;200;18.26;40961.87
1725968699.170;200;14.82;35269.20
1725968699.370;200;14.42;34616.00
1725968699.420;200;15.45;36311.54
1725968699.471;200;15.45;36311.54
1725968699.520;200;15.45;36311.54
1725968699.570;200;14.70;35073.87
1725968699.621;200;17.43;39591.54
1725968699.671;200;17.43;39591.54
1725968699.720;200;17.43;39591.54
1725968699.772;200;17.41;39550.00
1725968699.821;200;18.20;40857.33
1725968699.872;200;18.20;40857.33
1725968699.922;200;18.20;40857.33
1725968699.972;200;14.88;35378.54
1725968700.022;200;17.64;39937.40
1725968700.072;200;17.64;39937.40
1725968700.121;200;17.64;39937.40
1725968700.172;200;17.56;39798.93
1725968700.222;200;17.24;39265.33
1725968700.272;200;17.24;39265.33
1725968700.322;200;17.24;39265.33
1725968700.372;200;17.48;39666.54
1725968700.423;200;18.23;40910.54
1725968700.472;200;18.23;40910.54
1725968700.522;200;18.23;40910.54
1725968700.573;200;16.64;38277.27
1725968700.622;200;18.27;40969.40
1725968700.672;200;18.27;40969.40
1725968700.723;200;18.27;40969.40
1725968700.778;200;14.71;35094.40
1725968700.825;200;17.74;40103.27
1725968700.875;200;17.74;40103.27
1725968700.925;200;17.74;40103.27
1725968700.975;200;17.78;40161.67
1725968701.025;200;18.07;40645.67
1725968701.075;200;18.07;40645.67
1725968701.125;200;18.07;40645.67
1725968701.175;200;18.64;41581.07
1725968701.225;200;17.71;40047.54
1725968701.275;200;17.71;40047.54
1725968701.325;200;17.71;40047.54
1725968701.376;200;18.37;41130.46
1725968701.426;200;17.37;39479.27
1725968701.476;200;17.37;39479.27
1725968701.526;200;17.37;39479.27
1725968701.576;200;15.84;36960.00
1725968701.626;200;17.30;39379.46
1725968701.677;200;17.30;39379.46
1725968701.726;200;17.30;39379.46
1725968701.777;200;17.30;39379.46
1725968701.826;200;16.87;38657.00
1725968701.876;200;16.87;38657.00
1725968701.926;200;16.87;38657.00
1725968701.977;200;16.87;38657.00
1725968702.027;200;16.31;37742.33
1725968702.076;200;15.50;36393.13
1725968702.127;200;15.50;36393.13
1725968702.177;200;15.50;36393.13
1725968702.228;200;16.75;38468.87
1725968702.278;200;15.18;35866.20
1725968702.328;200;15.18;35866.20
1725968702.379;200;15.18;35866.20
1725968702.428;200;17.78;40164.73
1725968702.479;200;15.87;37009.87
1725968702.530;200;15.96;37164.80
1725968702.580;200;15.96;37164.80
1725968702.630;200;16.28;37692.33
1725968702.680;200;15.31;36084.13
1725968702.730;200;16.52;38085.87
1725968702.779;200;16.52;38085.87
1725968702.829;200;16.52;38085.87
1725968702.880;200;16.08;37365.33
1725968702.930;200;17.43;39591.13
1725968702.980;200;17.43;39591.13
1725968703.030;200;17.43;39591.13
1725968703.080;200;17.34;39437.60
1725968703.129;200;15.49;36376.80
1725968703.180;200;15.49;36376.80
1725968703.231;200;15.49;36376.80
1725968703.281;200;16.91;38734.60
1725968703.331;200;16.84;38618.87
1725968703.381;200;16.84;38618.87
1725968703.431;200;15.53;36453.80
1725968703.481;200;15.76;36823.27
1725968703.530;200;17.10;39048.87
1725968703.580;200;17.10;39048.87
1725968703.631;200;18.66;41623.20
1725968703.682;200;14.48;34723.67
1725968703.732;200;14.48;34723.67
1725968703.782;200;14.48;34723.67
1725968703.831;200;15.33;36117.20
1725968703.882;200;18.09;40678.87
1725968703.932;200;16.78;38513.87
1725968703.981;200;16.78;38513.87
1725968704.031;200;16.78;38513.87
1725968704.081;200;15.64;36623.20
1725968704.132;200;16.83;38601.13
1725968704.182;200;16.83;38601.13
1725968704.232;200;16.83;38601.13
1725968704.282;200;17.65;39946.13
1725968704.333;200;18.55;41433.73
1725968704.383;200;18.55;41433.73
1725968704.436;200;18.55;41433.73
1725968704.483;200;17.26;39304.00
1725968716.562;200;14.22;34290.40
1725968716.611;200;14.60;34914.54
1725968716.661;200;14.60;34914.54
1725968716.713;200;14.60;34914.54
1725968716.763;200;14.25;34342.60
1725968716.812;200;17.11;39057.67
1725968716.863;200;15.57;36515.54
1725968716.913;200;15.57;36515.54
1725968716.963;200;15.57;36515.54
1725968717.014;200;17.11;39058.07
1725968717.064;200;17.89;40340.07
1725968717.114;200;17.89;40340.07
1725968717.164;200;17.89;40340.07
1725968717.214;200;14.77;35200.93
1725968717.264;200;17.23;39257.67
1725968717.315;200;17.23;39257.67
1725968717.365;200;17.23;39257.67
1725968717.415;200;17.26;39299.07
1725968717.465;200;15.16;35843.20
1725968717.515;200;15.16;35843.20
1725968717.565;200;15.16;35843.20
1725968717.615;200;17.43;39587.54
1725968717.665;200;17.43;39587.54
1725968717.715;200;17.43;39587.54
1725968717.766;200;18.13;40736.13
1725968717.816;200;15.31;36092.00
1725968717.866;200;15.55;36483.46
1725968717.916;200;15.55;36483.46
1725968717.966;200;15.55;36483.46
1725968718.017;200;17.48;39669.46
1725968718.066;200;18.52;41385.13
1725968718.116;200;18.52;41385.13
1725968718.166;200;18.52;41385.13
1725968718.216;200;17.22;39232.67
1725968718.267;200;17.42;39576.33
1725968718.317;200;17.42;39576.33
1725968718.367;200;17.42;39576.33
1725968718.416;200;16.12;37419.00
1725968718.467;200;18.71;41691.60
1725968718.517;200;18.71;41691.60
1725968718.566;200;18.04;40599.73
1725968718.618;200;14.65;34995.46
1725968718.667;200;15.56;36507.07
1725968718.717;200;15.56;36507.07
1725968718.767;200;16.65;38292.33
1725968718.817;200;16.65;38296.07
1725968718.868;200;16.65;38296.07
1725968718.918;200;16.65;38296.07
1725968718.969;200;15.33;36122.27
1725968719.019;200;17.86;40298.80
1725968719.068;200;17.86;40298.80
1725968719.120;200;17.86;40298.80
1725968719.169;200;16.82;38583.00
1725968719.221;200;16.10;37398.00
1725968719.270;200;16.10;37398.00
1725968719.321;200;16.10;37398.00
1725968719.371;200;17.35;39454.20
1725968719.420;200;15.96;37152.40
1725968719.471;200;18.28;40985.60
1725968719.521;200;18.28;40985.60
1725968719.570;200;18.28;40985.60
1725968719.621;200;18.27;40973.07
1725968719.671;200;15.50;36392.40
1725968719.720;200;15.50;36392.40
1725968719.770;200;15.50;36392.40
1725968719.821;200;16.72;38416.13
1725968719.870;200;16.72;38416.13
1725968719.920;200;16.72;38416.13
1725968719.970;200;17.90;40359.33
1725968720.021;200;16.85;38622.54
1725968720.070;200;16.85;38622.54
1725968720.120;200;16.85;38622.54
1725968720.171;200;17.08;39005.40
1725968720.220;200;17.99;40505.46
1725968720.271;200;17.21;39215.87
1725968720.320;200;17.21;39215.87
1725968720.370;200;17.00;38868.00
1725968720.420;200;16.61;38238.20
1725968720.471;200;16.49;38041.67
1725968720.520;200;16.49;38041.67
1725968720.570;200;16.49;38041.67
1725968720.622;200;16.06;37318.60
1725968720.672;200;17.34;39431.80
1725968720.722;200;17.34;39431.80
1725968720.772;200;17.34;39431.80
1725968720.822;200;16.71;38402.20
1725968720.873;200;15.66;36658.20
1725968720.922;200;15.66;36658.20
1725968720.973;200;15.66;36658.20
1725968721.023;200;17.72;40060.33
1725968721.074;200;18.13;40743.27
1725968721.123;200;18.13;40743.27
1725968721.175;200;18.27;40971.20
1725968721.225;200;17.27;39318.73
1725968721.275;200;17.32;39399.54
1725968721.325;200;17.32;39399.54
1725968721.375;200;17.32;39399.54
1725968721.425;200;16.92;38749.27
1725968721.475;200;16.03;37274.13
1725968721.525;200;16.03;37274.13
1725968721.576;200;16.03;37274.13
1725968721.625;200;15.38;36196.93
1725968887.649;500;14.79;35235.20
1725968887.699;500;14.36;34510.67
1725968887.749;500;14.36;34510.67
1725968887.799;500;14.36;34510.67
1725968887.850;500;14.69;35057.60
1725968887.900;500;18.42;41213.73
1725968887.949;500;18.42;41213.73
1725968887.999;500;18.42;41213.73
1725968888.051;500;15.46;36337.80
1725968888.101;500;17.10;39038.33
1725968888.151;500;17.45;39619.93
1725968888.202;500;17.45;39619.93
1725968888.252;500;17.35;39449.46
1725968888.302;500;17.55;39784.93
1725968888.352;500;16.03;37272.73
1725968888.402;500;16.03;37272.73
1725968888.452;500;16.50;38046.27
1725968888.502;500;17.15;39120.80
1725968888.552;500;15.76;36828.54
1725968888.602;500;15.76;36828.54
1725968888.652;500;15.73;36773.73
1725968888.703;500;17.64;39927.40
1725968888.752;500;16.17;37497.87
1725968888.803;500;16.17;37497.87
1725968888.853;500;16.17;37497.87
1725968888.904;500;17.63;39918.73
1725968888.953;500;17.97;40477.33
1725968889.003;500;17.97;40477.33
1725968889.055;500;17.97;40477.33
1725968889.105;500;17.89;40353.27
1725968889.155;500;17.01;38892.73
1725968889.205;500;17.38;39502.67
1725968889.255;500;17.38;39502.67
1725968889.305;500;17.38;39502.67
1725968889.355;500;18.25;40937.33
1725968889.405;500;15.39;36220.07
1725968889.455;500;15.39;36220.07
1725968889.505;500;15.39;36220.07
1725968889.555;500;18.53;41397.27
1725968889.605;500;17.78;40163.20
1725968889.655;500;16.42;37922.20
1725968889.706;500;16.42;37922.20
1725968889.756;500;17.09;39017.13
1725968889.806;500;16.18;37525.60
1725968889.856;500;16.71;38400.20
1725968889.907;500;16.71;38400.20
1725968889.956;500;16.71;38400.20
1725968890.006;500;15.88;37028.93
1725968890.056;500;17.91;40386.00
1725968890.107;500;17.91;40386.00
1725968890.156;500;17.91;40386.00
1725968890.208;500;17.67;39981.60
1725968890.258;500;16.37;37832.20
1725968890.308;500;16.37;37832.20
1725968890.358;500;16.37;37832.20
1725968890.408;500;16.21;37565.00
1725968890.457;500;18.05;40617.33
1725968890.508;500;18.05;40617.33
1725968890.557;500;18.05;40617.33
1725968890.609;500;16.23;37598.80
1725968890.659;500;15.58;36540.00
1725968890.709;500;15.58;36540.00
1725968890.759;500;15.58;36540.00
1725968890.809;500;17.73;40078.33
1725968890.859;500;17.74;40096.73
1725968890.909;500;17.74;40096.73
1725968890.959;500;17.74;40096.73
1725968891.008;500;17.77;40148.67
1725968891.059;500;18.07;40636.87
1725968891.109;500;18.07;40636.87
1725968891.159;500;18.07;40636.87
1725968891.209;500;17.06;38972.33
1725968891.259;500;18.47;41306.80
1725968891.310;500;18.47;41306.80
1725968891.360;500;18.47;41306.80
1725968891.410;500;16.19;37540.73
1725968891.460;500;18.10;40687.07
1725968891.510;500;18.10;40687.07
1725968891.559;500;18.10;40687.07
1725968891.610;500;17.71;40048.07
1725968891.660;500;16.98;38840.20
1725968891.710;500;16.98;38840.20
1725968891.760;500;16.98;38840.20
1725968891.810;500;15.06;35671.60
1725968891.860;500;15.91;37075.33
1725968891.910;500;15.91;37075.33
1725968891.961;500;15.06;35667.07
1725968892.010;500;17.38;39511.27
1725968892.060;500;16.77;38499.27
1725968892.110;500;16.77;38499.27
1725968892.161;500;16.77;38499.27
1725968892.211;500;15.79;36879.33
1725968892.261;500;17.31;39386.13
1725968892.311;500;17.31;39386.13
1725968892.360;500;17.31;39386.13
1725968892.410;500;17.48;39665.27
1725968892.461;500;16.58;38181.60
1725968892.511;500;16.58;38181.60
1725968892.562;500;16.58;38181.60
1725968892.614;500;17.85;40282.33
1725968892.661;500;17.97;40482.93
1725968892.711;500;17.97;40482.93
1725968892.761;500;17.97;40482.93
1725968892.812;500;17.92;40397.00
1725968892.862;500;17.46;39641.13
1725968892.911;500;17.46;39641.13
1725968892.961;500;17.46;39641.13
1725968893.011;500;17.85;40287.07
1725968905.373;500;14.27;34375.07
1725968905.424;500;14.75;35166.67
1725968905.474;500;14.75;35166.67
1725968905.525;500;14.75;35166.67
1725968905.575;500;18.33;41066.54
1725968905.628;500;15.09;35729.20
1725968905.675;500;15.09;35729.20
1725968905.725;500;15.09;35729.20
1725968905.776;500;17.01;38884.33
1725968905.826;500;17.71;40053.20
1725968905.876;500;17.84;40257.87
1725968905.926;500;17.84;40257.87
1725968905.975;500;17.84;40257.87
1725968906.027;500;17.84;40257.87
1725968906.076;500;16.20;37560.80
1725968906.126;500;16.94;38780.27
1725968906.177;500;16.78;38520.46
1725968906.227;500;16.78;38520.46
1725968906.276;500;17.77;40146.00
1725968906.327;500;18.33;41073.46
1725968906.376;500;17.46;39642.00
1725968906.427;500;17.46;39642.00
1725968906.477;500;18.51;41373.73
1725968906.527;500;15.21;35927.33
1725968906.577;500;17.73;40082.00
1725968906.627;500;17.73;40082.00
1725968906.676;500;17.73;40082.00
1725968906.726;500;17.25;39291.00
1725968906.777;500;16.52;38089.60
1725968906.826;500;16.45;37961.20
1725968906.877;500;16.45;37961.20
1725968906.927;500;16.45;37961.20
1725968906.976;500;16.97;38822.87
1725968907.026;500;17.29;39354.33
1725968907.077;500;17.29;39354.33
1725968907.128;500;17.29;39354.33
1725968907.177;500;18.24;40921.67
1725968907.228;500;18.55;41427.27
1725968907.277;500;18.55;41427.27
1725968907.327;500;18.55;41427.27
1725968907.377;500;18.19;40837.40
1725968907.427;500;18.20;40862.67
1725968907.477;500;18.20;40862.67
1725968907.528;500;18.20;40862.67
1725968907.578;500;18.80;41852.07
1725968907.627;500;18.80;41852.07
1725968907.677;500;18.80;41852.07
1725968907.728;500;18.80;41852.07
1725968907.778;500;17.91;40376.60
1725968907.827;500;17.27;39326.60
1725968907.878;500;15.91;37069.33
1725968907.928;500;15.91;37069.33
1725968907.978;500;16.67;38332.00
1725968908.028;500;15.72;36764.00
1725968908.079;500;17.14;39111.87
1725968908.129;500;17.14;39111.87
1725968908.180;500;17.14;39111.87
1725968908.229;500;18.00;40529.20
1725968908.279;500;17.96;40453.07
1725968908.329;500;17.96;40453.07
1725968908.379;500;17.96;40453.07
1725968908.429;500;17.55;39779.60
1725968908.479;500;17.74;40091.20
1725968908.529;500;17.74;40091.20
1725968908.579;500;17.74;40091.20
1725968908.630;500;16.01;37239.93
1725968908.679;500;18.33;41069.07
1725968908.729;500;18.33;41069.07
1725968908.781;500;18.33;41069.07
1725968908.831;500;17.60;39871.33
1725968908.881;500;17.55;39783.33
1725968908.931;500;17.55;39783.33
1725968908.981;500;17.55;39783.33
1725968909.031;500;17.62;39900.60
1725968909.081;500;16.52;38090.13
1725968909.132;500;16.52;38090.13
1725968909.181;500;16.52;38090.13
1725968909.232;500;16.29;37709.54
1725968909.281;500;16.96;38809.33
1725968909.332;500;16.96;38809.33
1725968909.381;500;16.96;38809.33
1725968909.431;500;17.84;40264.80
1725968909.481;500;16.89;38690.80
1725968909.531;500;16.89;38690.80
1725968909.582;500;17.12;39066.93
1725968909.632;500;17.54;39764.40
1725968909.681;500;17.54;39764.40
1725968909.732;500;17.54;39764.40
1725968909.782;500;17.57;39809.33
1725968909.832;500;17.56;39796.20
1725968909.882;500;17.56;39796.20
1725968909.932;500;17.56;39796.20
1725968909.982;500;15.44;36295.93
1725968910.032;500;16.30;37719.87
1725968910.083;500;17.30;39367.27
1725968910.134;500;17.30;39367.27
1725968910.184;500;16.29;37710.33
1725968910.234;500;18.46;41280.20
1725968910.284;500;17.48;39662.13
1725968910.335;500;17.48;39662.13
1725968910.385;500;17.48;39662.13
1725968910.435;500;17.07;38993.93
1725968922.055;500;14.24;34324.27
1725968922.255;500;17.73;40080.93
1725968922.305;500;15.69;36711.87
1725968922.355;500;15.69;36711.87
1725968922.405;500;15.27;36012.13
1725968922.455;500;15.32;36104.40
1725968922.505;500;15.58;36530.00
1725968922.555;500;15.58;36530.00
1725968922.605;500;17.58;39833.27
1725968922.655;500;17.77;40144.40
1725968922.705;500;17.77;40144.40
1725968922.755;500;17.77;40144.40
1725968922.805;500;17.82;40223.07
1725968922.855;500;17.84;40259.20
1725968922.905;500;17.84;40259.20
1725968922.955;500;17.84;40259.20
1725968923.005;500;17.82;40228.67
1725968923.055;500;16.80;38542.40
1725968923.105;500;18.12;40719.80
1725968923.155;500;18.12;40719.80
1725968923.206;500;17.89;40344.00
1725968923.255;500;17.92;40397.20
1725968923.305;500;15.77;36842.27
1725968923.355;500;15.77;36842.27
1725968923.405;500;15.77;36842.27
1725968923.455;500;16.43;37939.80
1725968923.505;500;16.28;37694.40
1725968923.556;500;16.28;37694.40
1725968923.605;500;16.28;37694.40
1725968923.655;500;16.42;37925.00
1725968923.705;500;17.27;39323.87
1725968923.755;500;17.27;39323.87
1725968923.806;500;16.29;37703.54
1725968923.856;500;16.55;38127.20
1725968923.905;500;16.82;38572.20
1725968923.955;500;16.82;38572.20
1725968924.005;500;17.68;39993.27
1725968924.055;500;17.44;39599.67
1725968924.105;500;16.52;38081.27
1725968924.155;500;16.52;38081.27
1725968924.205;500;16.52;38081.27
1725968924.255;500;17.24;39276.87
1725968924.305;500;18.40;41186.80
1725968924.356;500;18.40;41186.80
1725968924.406;500;18.40;41186.80
1725968924.456;500;14.72;35107.20
1725968924.505;500;17.80;40194.27
1725968924.557;500;17.80;40194.27
1725968924.606;500;17.80;40194.27
1725968924.656;500;16.83;38588.00
1725968924.706;500;17.58;39832.33
1725968924.756;500;17.58;39832.33
1725968924.805;500;17.21;39223.20
1725968924.856;500;15.67;36673.87
1725968924.905;500;15.96;37167.00
1725968924.956;500;15.96;37167.00
1725968925.007;500;18.14;40753.87
1725968925.056;500;16.46;37981.60
1725968925.106;500;16.43;37930.54
1725968925.156;500;16.43;37930.54
1725968925.207;500;17.35;39456.73
1725968925.256;500;17.99;40512.46
1725968925.306;500;17.99;40512.46
1725968925.357;500;17.99;40512.46
1725968925.407;500;17.52;39729.46
1725968925.457;500;16.67;38327.33
1725968925.508;500;15.95;37150.67
1725968925.558;500;15.95;37150.67
1725968925.608;500;15.95;37150.67
1725968925.658;500;16.91;38732.40
1725968925.708;500;16.58;38176.54
1725968925.757;500;16.58;38176.54
1725968925.808;500;17.99;40517.46
1725968925.857;500;17.69;40013.54
1725968925.908;500;17.69;40013.54
1725968925.958;500;17.69;40013.54
1725968926.008;500;15.52;36434.07
1725968926.057;500;15.47;36344.73
1725968926.108;500;15.47;36344.73
1725968926.158;500;15.47;36344.73
1725968926.208;500;17.37;39493.40
1725968926.257;500;16.59;38206.87
1725968926.308;500;16.59;38206.87
1725968926.357;500;16.59;38206.87
1725968926.408;500;17.46;39628.80
1725968926.457;500;17.68;40001.13
1725968926.507;500;17.68;40001.13
1725968926.558;500;17.68;40001.13
1725968926.608;500;17.51;39720.13
1725968926.659;500;18.43;41230.67
1725968926.708;500;16.45;37973.54
1725968926.759;500;16.45;37973.54
1725968926.809;500;16.45;37973.54
1725968926.860;500;16.05;37303.00
1725968926.910;500;16.99;38864.67
1725968926.960;500;16.99;38864.67
1725968927.010;500;16.99;38864.67
1725968927.060;500;16.23;37604.13
1725968927.111;500;17.71;40050.54
1725968927.160;500;17.71;40050.54
1725968927.211;500;17.88;40334.54
1725968927.260;500;17.81;40213.60
1725969094.053;61;20.00;34236.07
1725969094.104;61;20.00;34208.13
1725969094.154;61;20.00;34208.13
1725969094.204;61;20.00;34208.13
1725969094.253;54;20.00;35518.93
1725969094.304;49;20.00;36377.13
1725969094.354;39;20.00;38242.67
1725969094.405;39;20.00;38242.67
1725969094.455;33;20.00;39465.46
1725969094.505;44;20.00;37314.27
1725969094.555;54;20.00;35442.27
1725969094.605;54;20.00;35442.27
1725969094.656;54;20.00;35442.27
1725969094.707;29;20.00;40217.80
1725969094.756;46;20.00;37040.27
1725969094.806;46;20.00;37040.27
1725969094.856;43;20.00;37588.33
1725969094.906;41;20.00;37941.80
1725969094.957;53;20.00;35723.60
1725969095.007;53;20.00;35723.60
1725969095.057;53;20.00;35723.60
1725969095.108;45;20.00;37260.73
1725969095.157;50;20.00;36244.87
1725969095.207;50;20.00;36244.87
1725969095.257;50;20.00;36244.87
1725969095.307;38;20.00;38451.27
1725969095.357;49;20.00;36409.46
1725969095.407;49;20.00;36409.46
1725969095.457;49;20.00;36409.46
1725969095.507;49;20.00;36409.46
1725969095.558;56;20.00;35027.33
1725969095.608;53;20.00;35672.67
1725969095.658;53;20.00;35672.67
1725969095.708;53;20.00;35672.67
1725969095.758;57;20.00;34985.60
1725969095.808;46;20.00;37050.60
1725969095.858;46;20.00;37050.60
1725969095.909;46;20.00;37050.60
1725969095.959;35;20.00;39045.67
1725969096.008;32;20.00;39565.27
1725969096.059;32;20.00;39565.27
1725969096.110;32;20.00;39565.27
1725969096.159;54;20.00;35463.00
1725969096.209;48;20.00;36604.33
1725969096.260;48;20.00;36604.33
1725969096.309;48;20.00;36604.33
1725969096.360;41;20.00;37947.46
1725969096.410;37;20.00;38737.20
1725969096.460;37;20.00;38737.20
1725969096.510;32;20.00;39704.80
1725969096.560;55;20.00;35233.33
1725969096.610;55;20.00;35233.33
1725969096.661;55;20.00;35233.33
1725969096.712;46;20.00;36966.87
1725969096.761;36;20.00;38952.07
1725969096.811;36;20.00;38952.07
1725969096.861;36;20.00;38952.07
1725969096.919;50;20.00;36317.13
1725969096.966;41;20.00;37888.07
1725969097.016;41;20.00;37888.07
1725969097.066;41;20.00;37888.07
1725969097.116;43;20.00;37539.87
1725969097.165;39;20.00;38335.40
1725969097.216;39;20.00;38335.40
1725969097.266;39;20.00;38335.40
1725969097.315;32;20.00;39621.73
1725969097.366;39;20.00;38291.27
1725969097.416;39;20.00;38291.27
1725969097.466;39;20.00;38291.27
1725969097.516;55;20.00;35266.93
1725969097.566;38;20.00;38469.73
1725969097.616;38;20.00;38469.73
1725969097.666;38;20.00;38469.73
1725969097.716;35;20.00;38982.87
1725969097.766;42;20.00;37792.93
1725969097.817;42;20.00;37792.93
1725969097.866;42;20.00;37792.93
1725969097.917;34;20.00;39204.80
1725969097.967;59;20.00;34592.00
1725969098.018;59;20.00;34592.00
1725969098.068;59;20.00;34592.00
1725969098.117;59;20.00;34472.54
1725969098.169;45;20.00;37125.67
1725969098.218;53;20.00;35759.40
1725969098.268;53;20.00;35759.40
1725969098.319;53;20.00;35759.40
1725969098.368;50;20.00;36250.60
1725969098.419;53;20.00;35735.07
1725969098.470;47;20.00;36799.73
1725969098.519;47;20.00;36799.73
1725969098.570;47;20.00;36799.73
1725969098.620;31;20.00;39744.67
1725969098.670;35;20.00;39043.20
1725969098.720;59;20.00;34519.46
1725969098.770;59;20.00;34519.46
1725969098.820;59;20.00;34519.46
1725969098.870;42;20.00;37726.27
1725969098.920;31;20.00;39783.87
1725969098.970;31;20.00;39783.87
1725969099.020;31;20.00;39783.87
1725969099.071;43;20.00;37567.13
1725969099.121;43;20.00;37567.13
1725969099.172;43;20.00;37567.13
1725969099.222;57;20.00;34946.40
1725969111.679;52;20.00;35866.67
1725969111.729;55;20.00;35217.07
1725969111.779;56;20.00;35029.07
1725969111.829;56;20.00;35029.07
1725969111.879;42;20.00;37836.93
1725969111.929;51;20.00;36078.40
1725969111.980;51;20.00;36078.40
1725969112.030;51;20.00;36078.40
1725969112.080;37;20.00;38739.33
1725969112.130;33;20.00;39500.46
1725969112.180;33;20.00;39500.46
1725969112.230;33;20.00;39500.46
1725969112.280;37;20.00;38753.27
1725969112.330;37;20.00;38753.27
1725969112.380;37;20.00;38753.27
1725969112.430;41;20.00;38004.80
1725969112.479;54;20.00;35554.80
1725969112.530;54;20.00;35554.80
1725969112.580;54;20.00;35554.80
1725969112.630;50;20.00;36332.87
1725969112.680;57;20.00;34859.73
1725969112.730;57;20.00;34859.73
1725969112.780;57;20.00;34859.73
1725969112.830;47;20.00;36780.73
1725969112.881;53;20.00;35661.07
1725969112.931;53;20.00;35661.07
1725969112.981;53;20.00;35661.07
1725969113.031;53;20.00;35661.07
1725969113.082;45;20.00;37221.80
1725969113.132;53;20.00;35651.00
1725969113.182;55;20.00;35349.67
1725969113.232;55;20.00;35349.67
1725969113.281;52;20.00;35856.40
1725969113.332;34;20.00;39237.93
1725969113.382;53;20.00;35605.00
1725969113.432;53;20.00;35605.00
1725969113.482;53;20.00;35605.00
1725969113.531;38;20.00;38427.40
1725969113.582;51;20.00;35968.80
1725969113.632;51;20.00;35968.80
1725969113.683;51;20.00;36032.27
1725969113.732;36;20.00;38798.33
1725969113.783;52;20.00;35817.87
1725969113.833;52;20.00;35817.87
1725969113.883;32;20.00;39653.07
1725969113.932;40;20.00;38111.87
1725969113.983;40;20.00;38111.87
1725969114.034;40;20.00;38111.87
1725969114.084;31;20.00;39870.87
1725969114.133;28;20.00;40414.07
1725969114.183;29;20.00;40179.73
1725969114.235;29;20.00;40179.73
1725969114.285;47;20.00;36873.73
1725969114.335;40;20.00;38068.13
1725969114.385;40;20.00;38068.13
1725969114.435;40;20.00;38068.13
1725969114.485;40;20.00;38067.60
1725969114.535;50;20.00;36186.40
1725969114.585;50;20.00;36186.40
1725969114.635;50;20.00;36186.40
1725969114.685;47;20.00;36817.20
1725969114.736;45;20.00;37164.00
1725969114.786;54;20.00;35529.46
1725969114.836;54;20.00;35529.46
1725969114.886;54;20.00;35529.46
1725969114.936;36;20.00;38944.80
1725969114.986;36;20.00;38944.80
1725969115.035;36;20.00;38944.80
1725969115.086;29;20.00;40142.80
1725969115.137;47;20.00;36867.13
1725969115.186;47;20.00;36867.13
1725969115.236;47;20.00;36867.13
1725969115.286;42;20.00;37815.73
1725969115.337;54;20.00;35533.20
1725969115.386;54;20.00;35533.20
1725969115.436;54;20.00;35533.20
1725969115.486;26;20.00;40683.00
1725969115.537;32;20.00;39558.27
1725969115.587;32;20.00;39558.27
1725969115.637;32;20.00;39558.27
1725969115.686;35;20.00;39155.27
1725969115.736;32;20.00;39579.54
1725969115.786;32;20.00;39579.54
1725969115.836;32;20.00;39579.54
1725969115.888;38;20.00;38542.20
1725969115.938;38;20.00;38542.20
1725969115.987;38;20.00;38542.20
1725969116.038;57;20.00;34950.13
1725969116.087;57;20.00;34950.13
1725969116.139;57;20.00;34950.13
1725969116.188;58;20.00;34666.00
1725969116.239;58;20.00;34666.00
1725969116.288;55;20.00;35295.87
1725969129.096;53;20.00;35624.80
1725969129.146;53;20.00;35600.00
1725969129.196;53;20.00;35600.00
1725969129.247;53;20.00;35600.00
1725969129.297;38;20.00;38420.00
1725969129.347;41;20.00;37940.46
1725969129.397;41;20.00;37940.46
1725969129.447;41;20.00;37940.46
1725969129.497;34;20.00;39252.67
1725969129.547;40;20.00;38082.40
1725969129.597;40;20.00;38082.40
1725969129.647;40;20.00;38082.40
1725969129.698;38;20.00;38601.46
1725969129.750;41;20.00;37985.20
1725969129.798;55;20.00;35358.40
1725969129.848;55;20.00;35358.40
1725969129.898;50;20.00;36234.80
1725969129.949;41;20.00;38016.33
1725969129.999;39;20.00;38366.87
1725969130.048;39;20.00;38366.87
1725969130.100;50;20.00;36290.87
1725969130.150;59;20.00;34522.27
1725969130.200;54;20.00;35428.00
1725969130.250;54;20.00;35428.00
1725969130.300;31;20.00;39822.46
1725969130.351;53;20.00;35715.73
1725969130.400;53;20.00;35715.73
1725969130.451;53;20.00;35715.73
1725969130.501;29;20.00;40109.00
1725969130.550;61;20.00;34213.46
1725969130.602;56;20.00;35205.80
1725969130.652;56;20.00;35205.80
1725969130.702;56;20.00;35205.80
1725969130.751;45;20.00;37279.80
1725969130.801;49;20.00;36423.20
1725969130.852;49;20.00;36423.20
1725969130.903;49;20.00;36423.20
1725969130.954;58;20.00;34772.40
1725969131.004;58;20.00;34772.40
1725969131.054;58;20.00;34772.40
1725969131.104;36;20.00;38970.20
1725969131.154;37;20.00;38697.87
1725969131.204;37;20.00;38697.87
1725969131.254;37;20.00;38697.87
1725969131.305;48;20.00;36624.07
1725969131.355;45;20.00;37283.87
1725969131.405;45;20.00;37283.87
1725969131.455;45;20.00;37283.87
1725969131.505;33;20.00;39516.40
1725969131.555;34;20.00;39342.27
1725969131.605;34;20.00;39342.27
1725969131.655;34;20.00;39342.27
1725969131.705;60;20.00;34322.20
1725969131.756;23;20.00;41260.93
1725969131.806;23;20.00;41260.93
1725969131.857;23;20.00;41260.93
1725969131.908;29;20.00;40208.73
1725969131.958;53;20.00;35641.46
1725969132.008;48;20.00;36640.13
1725969132.058;48;20.00;36640.13
1725969132.108;48;20.00;36640.13
1725969132.158;53;20.00;35680.00
1725969132.209;44;20.00;37428.00
1725969132.258;44;20.00;37428.00
1725969132.308;48;20.00;36571.60
1725969132.358;55;20.00;35386.13
1725969132.408;46;20.00;36946.93
1725969132.458;46;20.00;36946.93
1725969132.508;46;20.00;36946.93
1725969132.559;37;20.00;38773.60
1725969132.608;35;20.00;39031.93
1725969132.658;35;20.00;39031.93
1725969132.708;35;20.00;39031.93
1725969132.758;24;20.00;41158.87
1725969132.808;28;20.00;40428.46
1725969132.859;28;20.00;40428.46
1725969132.908;47;20.00;36883.13
1725969132.959;51;20.00;36131.46
1725969133.009;51;20.00;36131.46
1725969133.059;51;20.00;36131.46
1725969133.110;36;20.00;38976.13
1725969133.160;25;20.00;40887.93
1725969133.209;25;20.00;40887.93
1725969133.260;25;20.00;40887.93
1725969133.309;41;20.00;37990.54
1725969133.360;46;20.00;37066.80
1725969133.410;46;20.00;37066.80
1725969133.460;46;20.00;37066.80
1725969133.510;31;20.00;39901.13
1725969133.559;48;20.00;36627.73
1725969133.610;48;20.00;36627.73
1725969133.659;48;20.00;36627.73
1725969133.710;34;20.00;39204.33
1725969133.761;49;20.00;36477.73
1725969133.811;51;20.00;36049.73
1725969133.860;51;20.00;36049.73
1725969133.911;51;20.00;36049.73
1725969133.961;45;20.00;37191.73
1725969261.687;350;14.51;34772.54
1725969261.737;350;14.31;34430.67
1725969261.786;350;14.31;34430.67
1725969261.837;350;14.31;34430.67
1725969261.887;350;14.30;34420.27
1725969261.937;350;17.95;40444.54
1725969261.988;350;17.95;40444.54
1725969262.038;350;17.73;40079.54
1725969262.088;350;18.27;40970.87
1725969262.137;350;14.65;34989.33
1725969262.188;350;14.65;34989.33
1725969262.238;350;14.82;35271.13
1725969262.288;350;16.74;38438.54
1725969262.338;350;17.97;40478.93
1725969262.389;350;17.97;40478.93
1725969262.439;350;15.52;36424.54
1725969262.489;350;18.01;40550.93
1725969262.539;350;15.39;36210.73
1725969262.588;350;15.39;36210.73
1725969262.639;350;15.39;36210.73
1725969262.689;350;15.89;37043.87
1725969262.739;350;14.63;34967.20
1725969262.790;350;14.63;34967.20
1725969262.840;350;14.63;34967.20
1725969262.890;350;15.91;37077.67
1725969262.940;350;15.01;35590.27
1725969262.990;350;15.01;35590.27
1725969263.041;350;15.01;35590.27
1725969263.091;350;15.43;36282.93
1725969263.140;350;17.24;39264.40
1725969263.191;350;17.24;39264.40
1725969263.241;350;17.24;39264.40
1725969263.291;350;17.60;39872.20
1725969263.341;350;16.25;37631.07
1725969263.391;350;16.25;37631.07
1725969263.441;350;18.22;40886.46
1725969263.491;350;15.41;36256.93
1725969263.541;350;15.24;35968.87
1725969263.592;350;15.24;35968.87
1725969263.641;350;15.01;35582.93
1725969263.691;350;16.38;37854.80
1725969263.741;350;16.63;38263.27
1725969263.791;350;16.63;38263.27
1725969263.842;350;16.95;38787.13
1725969263.891;350;16.15;37473.40
1725969263.942;350;15.28;36033.87
1725969263.991;350;15.28;36033.87
1725969264.041;350;15.28;36033.87
1725969264.091;350;14.97;35523.87
1725969264.141;350;17.68;40006.40
1725969264.191;350;17.68;40006.40
1725969264.243;350;17.68;40006.40
1725969264.293;350;17.61;39876.20
1725969264.343;350;18.33;41069.73
1725969264.393;350;18.33;41069.73
1725969264.443;350;18.33;41069.73
1725969264.493;350;17.81;40207.87
1725969264.543;350;16.94;38769.46
1725969264.593;350;16.94;38769.46
1725969264.643;350;16.55;38126.80
1725969264.694;350;16.26;37656.73
1725969264.743;350;16.26;37656.73
1725969264.794;350;16.26;37656.73
1725969264.845;350;18.15;40782.07
1725969264.895;350;18.15;40782.07
1725969264.945;350;18.15;40782.07
1725969264.995;350;18.15;40782.07
1725969265.044;350;17.42;39561.46
1725969265.095;350;17.42;39561.46
1725969265.145;350;17.42;39561.46
1725969265.195;350;17.42;39561.46
1725969265.245;350;17.92;40392.13
1725969265.295;350;17.61;39881.73
1725969265.345;350;17.61;39881.73
1725969265.395;350;17.61;39881.73
1725969265.444;350;18.15;40770.67
1725969265.495;350;17.56;39801.87
1725969265.545;350;17.56;39801.87
1725969265.595;350;17.56;39801.87
1725969265.646;350;16.69;38368.87
1725969265.696;350;15.52;36435.33
1725969265.747;350;15.52;36435.33
1725969265.797;350;15.52;36435.33
1725969265.847;350;18.15;40777.46
1725969265.896;350;16.25;37643.27
1725969265.946;350;16.25;37643.27
1725969265.997;350;16.25;37643.27
1725969266.047;350;17.98;40494.33
1725969266.096;350;17.18;39176.93
1725969266.146;350;17.18;39176.93
1725969266.197;350;17.18;39176.93
1725969266.246;350;17.22;39232.00
1725969266.297;350;16.73;38426.80
1725969266.347;350;16.73;38426.80
1725969266.396;350;16.73;38426.80
1725969266.447;350;15.44;36308.60
1725969266.498;350;17.69;40007.67
1725969266.547;350;17.69;40007.67
1725969266.598;350;17.69;40007.67
1725969266.648;350;17.68;40000.13
1725969266.697;350;18.34;41088.93
1725969278.950;350;15.17;35856.73
1725969279.000;350;14.72;35105.73
1725969279.049;350;14.72;35105.73
1725969279.099;350;14.72;35105.73
1725969279.152;350;18.04;40601.00
1725969279.203;350;17.27;39316.46
1725969279.253;350;17.14;39113.93
1725969279.302;350;17.14;39113.93
1725969279.353;350;17.90;40364.60
1725969279.403;350;17.37;39490.00
1725969279.452;350;17.37;39490.00
1725969279.503;350;17.37;39490.00
1725969279.553;350;18.02;40553.33
1725969279.604;350;16.90;38715.07
1725969279.653;350;16.90;38715.07
1725969279.704;350;16.90;38715.07
1725969279.753;350;18.16;40783.67
1725969279.805;350;17.60;39858.40
1725969279.855;350;17.60;39858.40
1725969279.905;350;17.60;39858.40
1725969279.955;350;18.15;40780.07
1725969280.005;350;18.15;40780.07
1725969280.055;350;18.15;40780.07
1725969280.105;350;16.65;38295.20
1725969280.155;350;16.95;38800.73
1725969280.206;350;16.95;38800.73
1725969280.256;350;16.95;38800.73
1725969280.306;350;18.07;40637.87
1725969280.355;350;16.01;37237.20
1725969280.406;350;16.01;37237.20
1725969280.455;350;16.01;37237.20
1725969280.506;350;17.53;39747.33
1725969280.556;350;17.64;39930.67
1725969280.606;350;17.64;39930.67
1725969280.656;350;17.64;39930.67
1725969280.706;350;17.69;40023.27
1725969280.756;350;18.16;40798.00
1725969280.805;350;18.16;40798.00
1725969280.856;350;18.16;40798.00
1725969280.906;350;18.05;40604.73
1725969280.956;350;16.57;38168.27
1725969281.006;350;16.57;38168.27
1725969281.056;350;16.57;38168.27
1725969281.106;350;18.06;40631.93
1725969281.156;350;17.40;39538.54
1725969281.205;350;17.40;39538.54
1725969281.256;350;17.40;39538.54
1725969281.306;350;17.46;39640.33
1725969281.356;350;16.52;38091.20
1725969281.406;350;16.52;38091.20
1725969281.456;350;15.78;36854.13
1725969281.506;350;16.04;37298.46
1725969281.555;350;15.22;35938.80
1725969281.609;350;15.22;35938.80
1725969281.656;350;16.24;37629.20
1725969281.707;350;17.12;39076.87
1725969281.757;350;17.19;39192.46
1725969281.807;350;17.19;39192.46
1725969281.857;350;17.30;39367.67
1725969281.907;350;15.79;36880.73
1725969281.957;350;15.79;36880.73
1725969282.007;350;15.79;36880.73
1725969282.057;350;17.80;40198.60
1725969282.107;350;15.59;36541.87
1725969282.158;350;15.96;37167.07
1725969282.208;350;15.96;37167.07
1725969282.258;350;15.66;36657.33
1725969282.309;350;17.01;38899.13
1725969282.359;350;15.62;36605.00
1725969282.410;350;15.62;36605.00
1725969282.460;350;15.62;36605.00
1725969282.559;350;17.91;40375.20
1725969282.609;350;17.91;40375.20
1725969282.660;350;17.60;39864.54
1725969282.710;350;16.63;38269.07
1725969282.761;350;16.23;37608.67
1725969282.811;350;16.23;37608.67
1725969282.860;350;16.23;37608.67
1725969282.910;350;15.75;36815.87
1725969282.961;350;18.30;41020.60
1725969283.011;350;18.30;41020.60
1725969283.060;350;18.30;41020.60
1725969283.110;350;16.96;38803.46
1725969283.161;350;17.91;40370.80
1725969283.211;350;17.91;40370.80
1725969283.260;350;17.91;40370.80
1725969283.310;350;15.57;36516.73
1725969283.360;350;16.14;37455.20
1725969283.410;350;16.14;37455.20
1725969283.460;350;16.14;37455.20
1725969283.510;350;16.76;38475.46
1725969283.560;350;17.81;40210.00
1725969283.611;350;17.81;40210.00
1725969283.660;350;18.00;40531.27
1725969283.710;350;18.09;40674.87
1725969295.958;350;14.76;35178.54
1725969296.009;350;14.54;34815.60
1725969296.058;350;14.54;34815.60
1725969296.108;350;14.54;34809.87
1725969296.158;350;16.03;37271.80
1725969296.215;350;16.03;37271.80
1725969296.259;350;16.03;37271.80
1725969296.308;350;16.45;37975.20
1725969296.359;350;18.04;40597.93
1725969296.409;350;18.04;40597.93
1725969296.460;350;18.04;40597.93
1725969296.510;350;16.03;37279.46
1725969296.559;350;18.15;40769.60
1725969296.609;350;18.15;40769.60
1725969296.660;350;16.35;37797.00
1725969296.711;350;16.65;38292.40
1725969296.760;350;16.07;37338.93
1725969296.811;350;16.07;37338.93
1725969296.861;350;17.93;40413.20
1725969296.911;350;17.88;40324.87
1725969296.960;350;17.86;40303.13
1725969297.010;350;17.86;40303.13
1725969297.061;350;17.50;39696.13
1725969297.111;350;17.00;38884.20
1725969297.161;350;17.00;38884.20
1725969297.211;350;17.00;38884.20
1725969297.261;350;18.01;40538.87
1725969297.311;350;17.92;40386.80
1725969297.361;350;17.04;38945.46
1725969297.411;350;17.04;38945.46
1725969297.461;350;17.04;38945.46
1725969297.511;350;15.62;36605.80
1725969297.562;350;17.95;40451.46
1725969297.611;350;17.95;40451.46
1725969297.661;350;17.95;40451.46
1725969297.712;350;17.72;40061.87
1725969297.762;350;18.49;41334.67
1725969297.812;350;18.49;41334.67
1725969297.861;350;18.49;41334.67
1725969297.912;350;17.07;38987.27
1725969297.961;350;18.29;40998.33
1725969298.012;350;18.29;40998.33
1725969298.062;350;18.29;40998.33
1725969298.112;350;14.99;35560.13
1725969298.161;350;17.41;39546.20
1725969298.211;350;17.41;39546.20
1725969298.262;350;17.41;39546.20
1725969298.312;350;17.72;40065.54
1725969298.362;350;17.32;39406.33
1725969298.412;350;17.32;39406.33
1725969298.462;350;17.32;39406.33
1725969298.512;350;17.33;39414.40
1725969298.564;350;16.96;38804.80
1725969298.614;350;16.96;38804.80
1725969298.664;350;16.96;38804.80
1725969298.714;350;16.75;38464.40
1725969298.764;350;16.55;38129.60
1725969298.815;350;16.55;38129.60
1725969298.865;350;16.55;38129.60
1725969298.914;350;18.15;40781.60
1725969298.965;350;16.92;38740.54
1725969299.015;350;16.92;38740.54
1725969299.065;350;17.34;39439.60
1725969299.115;350;15.98;37187.67
1725969299.164;350;15.98;37187.67
1725969299.215;350;15.98;37187.67
1725969299.265;350;16.38;37846.54
1725969299.315;350;16.38;37846.54
1725969299.365;350;16.38;37846.54
1725969299.414;350;17.29;39349.27
1725969299.465;350;18.78;41821.80
1725969299.515;350;18.78;41821.80
1725969299.565;350;18.78;41821.80
1725969299.614;350;17.02;38902.80
1725969299.665;350;16.96;38806.40
1725969299.715;350;16.96;38806.40
1725969299.765;350;16.96;38806.40
1725969299.816;350;18.47;41309.33
1725969299.866;350;18.24;40925.67
1725969299.916;350;18.24;40925.67
1725969299.966;350;18.24;40925.67
1725969300.016;350;15.67;36677.87
1725969300.066;350;17.02;38913.46
1725969300.117;350;17.02;38913.46
1725969300.167;350;17.02;38913.46
1725969300.217;350;18.61;41526.13
1725969300.266;350;17.73;40073.73
1725969300.318;350;17.73;40073.73
1725969300.368;350;17.94;40421.80
1725969300.418;350;17.21;39230.33
1725969300.468;350;15.14;35813.07
1725969300.519;350;15.14;35813.07
1725969300.569;350;15.14;35813.07
1725969300.619;350;17.69;40007.54
1725969300.669;350;16.62;38254.20
1725969419.899;55;30.00;35259.33
1725969419.949;55;30.00;35304.67
1725969420.000;56;30.00;35132.54
1725969420.050;56;30.00;35132.54
1725969420.099;56;30.00;35132.54
1725969420.149;37;30.00;38622.00
1725969420.199;38;30.00;38573.20
1725969420.250;38;30.00;38573.20
1725969420.300;38;30.00;38573.20
1725969420.350;57;30.00;34928.93
1725969420.400;27;30.00;40562.60
1725969420.451;27;30.00;40562.60
1725969420.500;27;30.00;40562.60
1725969420.551;48;30.00;36554.46
1725969420.601;33;30.00;39451.33
1725969420.650;33;30.00;39451.33
1725969420.701;33;30.00;39451.33
1725969420.752;50;30.00;36164.67
1725969420.802;56;30.00;35214.00
1725969420.851;56;30.00;35214.00
1725969420.901;56;30.00;35214.00
1725969420.951;61;30.00;34244.67
1725969421.001;56;30.00;35148.54
1725969421.051;56;30.00;35148.54
1725969421.101;56;30.00;35148.54
1725969421.151;29;30.00;40147.80
1725969421.202;45;30.00;37153.67
1725969421.252;45;30.00;37153.67
1725969421.303;45;30.00;37153.67
1725969421.353;52;30.00;35800.13
1725969421.402;59;30.00;34478.00
1725969421.452;59;30.00;34478.00
1725969421.504;57;30.00;34925.00
1725969421.554;57;30.00;34866.73
1725969421.604;57;30.00;34866.73
1725969421.654;57;30.00;34866.73
1725969421.704;57;30.00;35022.13
1725969421.755;42;30.00;37816.54
1725969421.804;42;30.00;37816.54
1725969421.855;42;30.00;37816.54
1725969421.905;35;30.00;39065.27
1725969421.955;58;30.00;34769.46
1725969422.005;37;30.00;38605.07
1725969422.054;37;30.00;38605.07
1725969422.104;41;30.00;37976.20
1725969422.155;54;30.00;35497.87
1725969422.205;44;30.00;37367.93
1725969422.255;44;30.00;37367.93
1725969422.305;44;30.00;37367.93
1725969422.354;42;30.00;37714.67
1725969422.405;38;30.00;38462.00
1725969422.455;38;30.00;38462.00
1725969422.504;38;30.00;38462.00
1725969422.555;36;30.00;38909.60
1725969422.605;45;30.00;37142.67
1725969422.656;45;30.00;37142.67
1725969422.706;45;30.00;37142.67
1725969422.756;53;30.00;35724.54
1725969422.806;49;30.00;36348.00
1725969422.856;49;30.00;36348.00
1725969422.905;49;30.00;36348.00
1725969422.955;42;30.00;37760.46
1725969423.006;51;30.00;36018.40
1725969423.055;51;30.00;36018.40
1725969423.106;51;30.00;36018.40
1725969423.156;34;30.00;39207.46
1725969423.206;35;30.00;39096.67
1725969423.257;35;30.00;39096.67
1725969423.306;35;30.00;39096.67
1725969423.357;38;30.00;38473.07
1725969423.407;41;30.00;37870.13
1725969423.457;43;30.00;37567.67
1725969423.506;43;30.00;37567.67
1725969423.557;33;30.00;39472.60
1725969423.607;58;30.00;34771.60
1725969423.657;58;30.00;34771.60
1725969423.707;58;30.00;34771.60
1725969423.808;27;30.00;40570.40
1725969423.858;27;30.00;40570.40
1725969423.907;27;30.00;40570.40
1725969423.958;58;30.00;34765.60
1725969424.007;40;30.00;38174.80
1725969424.058;40;30.00;38174.80
1725969424.108;59;30.00;34526.80
1725969424.159;51;30.00;36089.93
1725969424.209;53;30.00;35600.80
1725969424.259;53;30.00;35600.80
1725969424.309;54;30.00;35510.27
1725969424.360;39;30.00;38329.93
1725969424.409;33;30.00;39441.20
1725969424.460;33;30.00;39441.20
1725969424.509;33;30.00;39441.20
1725969424.559;46;30.00;36913.20
1725969424.609;31;30.00;39737.33
1725969424.661;31;30.00;39737.33
1725969424.711;31;30.00;39737.33
1725969424.761;40;30.00;38076.13
1725969424.811;26;30.00;40723.40
1725969424.861;26;30.00;40723.40
1725969424.911;26;30.00;40723.40
1725969424.961;41;30.00;37945.93
1725969437.391;55;30.00;35235.73
1725969437.440;54;30.00;35547.87
1725969437.490;54;30.00;35547.87
1725969437.541;60;30.00;34449.60
1725969437.590;45;30.00;37126.93
1725969437.641;29;30.00;40121.80
1725969437.691;29;30.00;40121.80
1725969437.741;53;30.00;35698.46
1725969437.790;54;30.00;35529.67
1725969437.840;51;30.00;35981.73
1725969437.891;51;30.00;35981.73
1725969437.941;45;30.00;37101.80
1725969437.991;57;30.00;34866.93
1725969438.042;57;30.00;34866.93
1725969438.092;57;30.00;34866.93
1725969438.142;33;30.00;39356.40
1725969438.192;53;30.00;35698.27
1725969438.241;53;30.00;35698.27
1725969438.292;53;30.00;35698.27
1725969438.344;41;30.00;37947.13
1725969438.396;37;30.00;38765.40
1725969438.445;33;30.00;39512.07
1725969438.494;33;30.00;39512.07
1725969438.545;32;30.00;39555.93
1725969438.595;33;30.00;39371.87
1725969438.644;49;30.00;36420.54
1725969438.694;49;30.00;36420.54
1725969438.745;49;30.00;36420.54
1725969438.795;43;30.00;37610.80
1725969438.845;52;30.00;35930.00
1725969438.894;52;30.00;35930.00
1725969438.944;52;30.00;35930.00
1725969438.995;54;30.00;35507.60
1725969439.045;53;30.00;35720.67
1725969439.094;53;30.00;35720.67
1725969439.144;53;30.00;35720.67
1725969439.194;52;30.00;35908.54
1725969439.246;40;30.00;38129.46
1725969439.295;40;30.00;38129.46
1725969439.346;40;30.00;38129.46
1725969439.396;59;30.00;34582.67
1725969439.446;59;30.00;34582.67
1725969439.495;59;30.00;34582.67
1725969439.546;37;30.00;38769.93
1725969439.596;29;30.00;40262.46
1725969439.646;29;30.00;40262.46
1725969439.696;29;30.00;40262.46
1725969439.746;31;30.00;39749.93
1725969439.796;31;30.00;39749.93
1725969439.845;31;30.00;39749.93
1725969439.896;31;30.00;39749.93
1725969439.946;48;30.00;36658.07
1725969439.995;48;30.00;36658.07
1725969440.046;48;30.00;36658.07
1725969440.095;48;30.00;36658.07
1725969440.147;46;30.00;37087.07
1725969440.197;33;30.00;39440.67
1725969440.247;33;30.00;39440.67
1725969440.296;33;30.00;39440.67
1725969440.348;31;30.00;39781.60
1725969440.398;41;30.00;37862.67
1725969440.447;41;30.00;37862.67
1725969440.497;41;30.00;37862.67
1725969440.548;42;30.00;37683.13
1725969440.597;39;30.00;38273.80
1725969440.647;41;30.00;37928.60
1725969440.697;41;30.00;37928.60
1725969440.747;40;30.00;38170.54
1725969440.798;53;30.00;35725.54
1725969440.848;48;30.00;36625.93
1725969440.898;48;30.00;36625.93
1725969440.947;48;30.00;36625.93
1725969440.998;60;30.00;34322.54
1725969441.047;37;30.00;38711.60
1725969441.097;37;30.00;38711.60
1725969441.148;37;30.00;38711.60
1725969441.199;36;30.00;38829.93
1725969441.249;32;30.00;39670.54
1725969441.299;32;30.00;39670.54
1725969441.349;36;30.00;38829.80
1725969441.399;47;30.00;36892.07
1725969441.449;51;30.00;36120.20
1725969441.499;51;30.00;36120.20
1725969441.550;51;30.00;36120.20
1725969441.599;59;30.00;34575.60
1725969441.650;49;30.00;36467.67
1725969441.699;49;30.00;36467.67
1725969441.750;49;30.00;36467.67
1725969441.799;37;30.00;38722.40
1725969441.850;37;30.00;38714.60
1725969441.899;37;30.00;38714.60
1725969441.950;28;30.00;40308.13
1725969441.999;39;30.00;38293.27
1725969442.050;39;30.00;38293.27
1725969442.100;39;30.00;38293.27
1725969442.151;55;30.00;35259.60
1725969442.200;52;30.00;35781.73
1725969454.338;60;30.00;34282.80
1725969454.537;53;30.00;35761.80
1725969454.588;53;30.00;35761.80
1725969454.638;49;30.00;36392.67
1725969454.689;56;30.00;35083.00
1725969454.738;56;30.00;35083.00
1725969454.788;56;30.00;35083.00
1725969454.840;57;30.00;34965.87
1725969454.890;52;30.00;35841.40
1725969454.939;52;30.00;35841.40
1725969454.989;26;30.00;40712.80
1725969455.039;38;30.00;38489.93
1725969455.089;38;30.00;38489.93
1725969455.140;38;30.00;38489.93
1725969455.190;35;30.00;39088.33
1725969455.239;35;30.00;39088.33
1725969455.290;35;30.00;39088.33
1725969455.339;56;30.00;35198.00
1725969455.390;56;30.00;35198.00
1725969455.441;56;30.00;35198.00
1725969455.491;44;30.00;37380.67
1725969455.541;44;30.00;37380.67
1725969455.590;44;30.00;37380.67
1725969455.691;48;30.00;36557.00
1725969455.741;41;30.00;37876.54
1725969455.791;41;30.00;37876.54
1725969455.841;41;30.00;37876.54
1725969455.891;41;30.00;37921.20
1725969455.941;45;30.00;37184.13
1725969455.991;46;30.00;37047.46
1725969456.041;41;30.00;37889.00
1725969456.091;41;30.00;37889.00
1725969456.141;35;30.00;39158.13
1725969456.191;34;30.00;39217.54
1725969456.241;44;30.00;37326.40
1725969456.292;44;30.00;37326.40
1725969456.342;44;30.00;37326.40
1725969456.392;49;30.00;36371.27
1725969456.442;44;30.00;37412.54
1725969456.492;43;30.00;37621.67
1725969456.542;43;30.00;37621.67
1725969456.593;52;30.00;35820.60
1725969456.643;36;30.00;38847.13
1725969456.692;36;30.00;38847.13
1725969456.742;36;30.00;38847.13
1725969456.793;57;30.00;34911.46
1725969456.842;32;30.00;39696.27
1725969456.892;32;30.00;39696.27
1725969456.942;32;30.00;39696.27
1725969456.992;52;30.00;35802.80
1725969457.043;56;30.00;35144.46
1725969457.093;56;30.00;35144.46
1725969457.143;56;30.00;35144.46
1725969457.193;38;30.00;38480.00
1725969457.243;59;30.00;34600.27
1725969457.293;59;30.00;34600.27
1725969457.342;59;30.00;34600.27
1725969457.393;58;30.00;34787.80
1725969457.442;55;30.00;35219.07
1725969457.493;40;30.00;38052.27
1725969457.544;40;30.00;38052.27
1725969457.594;47;30.00;36732.80
1725969457.643;35;30.00;39065.27
1725969457.694;35;30.00;39065.27
1725969457.743;35;30.00;39065.27
1725969457.794;31;30.00;39911.73
1725969457.844;54;30.00;35487.87
1725969457.894;41;30.00;37897.20
1725969457.944;41;30.00;37897.20
1725969457.995;44;30.00;37421.67
1725969458.045;54;30.00;35506.80
1725969458.095;54;30.00;35506.80
1725969458.145;54;30.00;35506.80
1725969458.195;38;30.00;38596.13
1725969458.246;34;30.00;39297.27
1725969458.295;34;30.00;39297.27
1725969458.346;34;30.00;39297.27
1725969458.395;34;30.00;39297.27
1725969458.446;32;30.00;39679.00
1725969458.496;32;30.00;39679.00
1725969458.545;32;30.00;39679.00
1725969458.596;38;30.00;38417.00
1725969458.645;47;30.00;36753.33
1725969458.696;47;30.00;36753.33
1725969458.745;47;30.00;36753.33
1725969458.796;43;30.00;37557.46
1725969458.846;38;30.00;38545.33
1725969458.895;38;30.00;38545.33
1725969458.946;46;30.00;37054.40
1725969458.996;44;30.00;37370.40
1725969459.046;53;30.00;35642.40
1725969459.096;53;30.00;35642.40
1725969459.146;42;30.00;37735.46
1725969459.196;41;30.00;37932.87
1725969756.923;56;40.00;35161.87
1725969756.973;60;40.00;34395.33
1725969757.023;60;40.00;34395.33
1725969757.073;60;40.00;34395.33
1725969757.173;48;40.00;36549.87
1725969757.223;48;40.00;36549.87
1725969757.273;48;40.00;36549.87
1725969757.323;45;40.00;37201.40
1725969757.373;28;40.00;40339.07
1725969757.423;28;40.00;40339.07
1725969757.473;28;40.00;40339.07
1725969757.524;42;40.00;37691.00
1725969757.574;31;40.00;39898.87
1725969757.624;31;40.00;39898.87
1725969757.674;31;40.00;39898.87
1725969757.724;48;40.00;36684.27
1725969757.774;37;40.00;38781.07
1725969757.825;37;40.00;38781.07
1725969757.874;37;40.00;38781.07
1725969757.924;58;40.00;34822.20
1725969757.976;58;40.00;34789.60
1725969758.026;58;40.00;34789.60
1725969758.076;58;40.00;34789.60
1725969758.126;52;40.00;35924.00
1725969758.176;38;40.00;38510.54
1725969758.226;38;40.00;38510.54
1725969758.276;38;40.00;38510.54
1725969758.326;54;40.00;35501.20
1725969758.376;47;40.00;36898.60
1725969758.426;47;40.00;36898.60
1725969758.476;47;40.00;36898.60
1725969758.527;34;40.00;39303.33
1725969758.576;52;40.00;35853.46
1725969758.626;52;40.00;35853.46
1725969758.678;52;40.00;35853.46
1725969758.728;35;40.00;39154.33
1725969758.777;40;40.00;38116.60
1725969758.828;40;40.00;38116.60
1725969758.877;49;40.00;36370.27
1725969758.928;54;40.00;35570.27
1725969758.978;54;40.00;35570.27
1725969759.028;54;40.00;35570.27
1725969759.078;34;40.00;39306.67
1725969759.127;38;40.00;38546.40
1725969759.179;38;40.00;38546.40
1725969759.229;38;40.00;38546.40
1725969759.279;37;40.00;38729.80
1725969759.328;44;40.00;37447.07
1725969759.379;44;40.00;37447.07
1725969759.429;44;40.00;37447.07
1725969759.480;34;40.00;39305.46
1725969759.529;45;40.00;37111.33
1725969759.579;45;40.00;37111.33
1725969759.629;45;40.00;37111.33
1725969759.680;52;40.00;35824.54
1725969759.730;42;40.00;37729.00
1725969759.780;42;40.00;37729.00
1725969759.830;42;40.00;37729.00
1725969759.880;28;40.00;40397.27
1725969759.930;28;40.00;40449.13
1725969759.980;28;40.00;40449.13
1725969760.031;28;40.00;40449.13
1725969760.081;57;40.00;34907.33
1725969760.130;49;40.00;36457.27
1725969760.180;30;40.00;40031.13
1725969760.230;30;40.00;40031.13
1725969760.282;30;40.00;40031.13
1725969760.332;54;40.00;35478.93
1725969760.382;27;40.00;40552.00
1725969760.432;27;40.00;40552.00
1725969760.481;27;40.00;40552.00
1725969760.532;48;40.00;36659.87
1725969760.581;35;40.00;38995.54
1725969760.632;35;40.00;38995.54
1725969760.682;35;40.00;38995.54
1725969760.733;52;40.00;35933.93
1725969760.783;52;40.00;35933.93
1725969760.833;52;40.00;35933.93
1725969760.883;58;40.00;34741.20
1725969760.934;51;40.00;36013.67
1725969760.983;51;40.00;36013.67
1725969761.034;51;40.00;36013.67
1725969761.084;53;40.00;35663.93
1725969761.134;50;40.00;36338.93
1725969761.184;32;40.00;39622.20
1725969761.235;32;40.00;39622.20
1725969761.285;26;40.00;40715.20
1725969761.385;59;40.00;34644.27
1725969761.435;59;40.00;34644.27
1725969761.485;59;40.00;34644.27
1725969761.535;25;40.00;40956.93
1725969761.585;47;40.00;36835.60
1725969761.635;47;40.00;36835.60
1725969761.685;47;40.00;36835.60
1725969761.735;46;40.00;37033.27
1725969761.785;37;40.00;38659.80
1725969761.835;37;40.00;38659.80
1725969761.886;37;40.00;38659.80
1725969761.936;57;40.00;34961.46
1725969774.116;59;40.00;34532.40
1725969774.165;57;40.00;34903.33
1725969774.216;57;40.00;34903.33
1725969774.266;57;40.00;34903.33
1725969774.316;47;40.00;36744.67
1725969774.366;35;40.00;39038.46
1725969774.415;52;40.00;35794.00
1725969774.465;52;40.00;35794.00
1725969774.516;52;40.00;35794.00
1725969774.566;50;40.00;36298.93
1725969774.617;39;40.00;38359.46
1725969774.665;39;40.00;38359.46
1725969774.716;28;40.00;40442.27
1725969774.765;53;40.00;35601.87
1725969774.816;40;40.00;38153.46
1725969774.866;40;40.00;38153.46
1725969774.917;40;40.00;38153.46
1725969774.966;59;40.00;34561.87
1725969775.018;51;40.00;36031.00
1725969775.067;51;40.00;36031.00
1725969775.119;51;40.00;36031.00
1725969775.168;44;40.00;37321.07
1725969775.219;42;40.00;37799.93
1725969775.268;42;40.00;37799.93
1725969775.319;42;40.00;37799.93
1725969775.369;34;40.00;39169.40
1725969775.420;34;40.00;39169.40
1725969775.469;34;40.00;39169.40
1725969775.520;41;40.00;37956.93
1725969775.569;49;40.00;36390.67
1725969775.620;49;40.00;36390.67
1725969775.671;49;40.00;36390.67
1725969775.721;48;40.00;36653.00
1725969775.770;44;40.00;37331.46
1725969775.821;44;40.00;37331.46
1725969775.871;44;40.00;37331.46
1725969775.921;55;40.00;35343.07
1725969775.970;37;40.00;38711.46
1725969776.021;37;40.00;38711.46
1725969776.071;37;40.00;38711.46
1725969776.122;48;40.00;36662.40
1725969776.171;48;40.00;36674.27
1725969776.222;45;40.00;37197.46
1725969776.275;45;40.00;37197.46
1725969776.324;35;40.00;39057.73
1725969776.374;24;40.00;41128.33
1725969776.425;24;40.00;41128.33
1725969776.475;24;40.00;41128.33
1725969776.525;48;40.00;36596.13
1725969776.575;48;40.00;36631.93
1725969776.625;48;40.00;36631.93
1725969776.675;48;40.00;36631.93
1725969776.725;38;40.00;38479.67
1725969776.775;52;40.00;35958.87
1725969776.825;52;40.00;35958.87
1725969776.876;52;40.00;35958.87
1725969776.925;40;40.00;38189.07
1725969776.975;48;40.00;36716.00
1725969777.025;48;40.00;36716.00
1725969777.075;48;40.00;36716.00
1725969777.125;40;40.00;38171.40
1725969777.175;47;40.00;36855.46
1725969777.226;40;40.00;38083.46
1725969777.275;40;40.00;38083.46
1725969777.325;36;40.00;38812.87
1725969777.376;37;40.00;38610.40
1725969777.426;37;40.00;38610.40
1725969777.477;37;40.00;38610.40
1725969777.528;54;40.00;35558.73
1725969777.578;49;40.00;36405.00
1725969777.628;49;40.00;36405.00
1725969777.677;49;40.00;36405.00
1725969777.728;59;40.00;34497.87
1725969777.777;35;40.00;39093.13
1725969777.827;35;40.00;39093.13
1725969777.878;35;40.00;39093.13
1725969777.928;49;40.00;36436.93
1725969777.978;33;40.00;39374.20
1725969778.029;33;40.00;39374.20
1725969778.078;33;40.00;39374.20
1725969778.129;26;40.00;40678.54
1725969778.179;39;40.00;38288.67
1725969778.229;39;40.00;38288.67
1725969778.279;39;40.00;38288.67
1725969778.329;39;40.00;38288.67
1725969778.380;49;40.00;36496.13
1725969778.431;47;40.00;36854.54
1725969778.480;47;40.00;36854.54
1725969778.530;47;40.00;36854.54
1725969778.580;45;40.00;37272.20
1725969778.631;49;40.00;36403.20
1725969778.681;37;40.00;38719.67
1725969778.731;37;40.00;38719.67
1725969778.781;31;40.00;39834.40
1725969778.831;35;40.00;39164.80
1725969779.032;28;40.00;40397.87
1725969779.081;55;40.00;35337.33
1725969779.131;55;40.00;35337.33
1725969779.182;55;40.00;35337.33
1725969779.232;52;40.00;35904.80
1725969791.279;58;40.00;34819.87
1725969791.329;48;40.00;36559.46
1725969791.379;48;40.00;36559.46
1725969791.429;48;40.00;36559.46
1725969791.479;50;40.00;36284.13
1725969791.529;38;40.00;38585.00
1725969791.579;38;40.00;38585.00
1725969791.629;38;40.00;38585.00
1725969791.679;59;40.00;34606.20
1725969791.729;47;40.00;36890.40
1725969791.779;47;40.00;36890.40
1725969791.829;50;40.00;36306.00
1725969791.879;45;40.00;37162.27
1725969791.929;46;40.00;37031.60
1725969791.980;46;40.00;37031.60
1725969792.030;45;40.00;37136.40
1725969792.079;52;40.00;35849.07
1725969792.131;54;40.00;35495.87
1725969792.181;54;40.00;35495.87
1725969792.231;55;40.00;35279.07
1725969792.281;51;40.00;36071.40
1725969792.331;44;40.00;37361.00
1725969792.381;44;40.00;37361.00
1725969792.432;44;40.00;37361.00
1725969792.482;39;40.00;38335.73
1725969792.532;30;40.00;40012.20
1725969792.581;30;40.00;40012.20
1725969792.633;30;40.00;40012.20
1725969792.682;31;40.00;39891.80
1725969792.733;43;40.00;37539.54
1725969792.782;43;40.00;37539.54
1725969792.833;43;40.00;37539.54
1725969792.883;49;40.00;36392.54
1725969792.934;47;40.00;36824.67
1725969792.984;47;40.00;36824.67
1725969793.033;41;40.00;37869.93
1725969793.084;49;40.00;36416.27
1725969793.134;41;40.00;37917.60
1725969793.184;41;40.00;37917.60
1725969793.235;52;40.00;35925.33
1725969793.284;57;40.00;34953.60
1725969793.335;57;40.00;34953.60
1725969793.385;57;40.00;34953.60
1725969793.435;39;40.00;38320.93
1725969793.484;49;40.00;36421.60
1725969793.535;49;40.00;36421.60
1725969793.585;49;40.00;36421.60
1725969793.635;49;40.00;36460.93
1725969793.685;53;40.00;35667.20
1725969793.736;53;40.00;35667.20
1725969793.786;53;40.00;35667.20
1725969793.836;44;40.00;37311.07
1725969793.886;59;40.00;34625.60
1725969793.936;35;40.00;39074.60
1725969793.986;35;40.00;39074.60
1725969794.036;35;40.00;39074.60
1725969794.085;40;40.00;38047.87
1725969794.136;20;40.00;41809.46
1725969794.186;20;40.00;41809.46
1725969794.236;20;40.00;41809.46
1725969794.286;47;40.00;36830.07
1725969794.336;52;40.00;35879.07
1725969794.387;52;40.00;35879.07
1725969794.436;52;40.00;35879.07
1725969794.487;42;40.00;37713.33
1725969794.537;49;40.00;36510.40
1725969794.587;46;40.00;37007.87
1725969794.637;46;40.00;37007.87
1725969794.687;46;40.00;37007.87
1725969794.737;50;40.00;36181.87
1725969794.787;55;40.00;35391.73
1725969794.837;55;40.00;35391.73
1725969794.886;55;40.00;35391.73
1725969794.938;23;40.00;41256.73
1725969794.988;40;40.00;38153.60
1725969795.038;40;40.00;38153.60
1725969795.088;40;40.00;38153.60
1725969795.138;57;40.00;34855.27
1725969795.188;40;40.00;38068.07
1725969795.238;40;40.00;38068.07
1725969795.288;40;40.00;38068.07
1725969795.339;33;40.00;39499.20
1725969795.390;52;40.00;35963.07
1725969795.440;52;40.00;35963.07
1725969795.490;52;40.00;35963.07
1725969795.540;49;40.00;36398.13
1725969795.590;46;40.00;36977.80
1725969795.641;41;40.00;38001.67
1725969795.691;41;40.00;38001.67
1725969795.742;41;40.00;38001.67
1725969795.792;42;40.00;37802.87
1725969795.842;29;40.00;40143.73
1725969795.892;29;40.00;40143.73
1725969795.942;29;40.00;40143.73
1725969795.992;55;40.00;35361.54
1725969796.042;48;40.00;36650.46
1725969796.092;48;40.00;36650.46
1725969796.142;50;40.00;36331.27
1725969796.191;33;40.00;39394.73
1725969796.243;33;40.00;39394.73
1725969796.292;33;40.00;39394.73
1725969796.343;45;40.00;37269.93
1725969796.393;29;40.00;40211.73
1725969911.245;50;14.18;34221.87
1725969911.295;50;14.18;34221.87
1725969911.346;50;14.38;34547.87
1725969911.396;50;14.29;34403.73
1725969911.445;50;14.64;34988.00
1725969911.495;50;14.64;34988.00
1725969911.546;50;14.64;34988.00
1725969911.597;50;16.85;38628.46
1725969911.647;50;16.00;37233.33
1725969911.697;50;16.00;37233.33
1725969911.746;50;16.00;37233.33
1725969911.797;50;15.29;36044.87
1725969911.846;50;16.72;38421.54
1725969911.897;50;16.72;38421.54
1725969911.947;50;16.72;38421.54
1725969911.997;50;17.15;39128.67
1725969912.047;50;15.81;36916.80
1725969912.098;50;15.81;36916.80
1725969912.147;50;16.08;37361.46
1725969912.197;50;17.28;39339.27
1725969912.247;50;17.28;39339.27
1725969912.297;50;17.28;39339.27
1725969912.349;50;14.32;34459.87
1725969912.399;50;16.83;38603.60
1725969912.449;50;16.83;38603.60
1725969912.499;50;16.83;38603.60
1725969912.549;50;16.53;38092.27
1725969912.599;50;18.34;41085.46
1725969912.649;50;18.34;41085.46
1725969912.699;50;18.34;41085.46
1725969912.750;50;15.01;35597.07
1725969912.799;50;18.00;40526.40
1725969912.850;50;18.00;40526.40
1725969912.901;50;18.00;40526.40
1725969912.951;50;14.92;35441.60
1725969913.051;50;15.62;36599.87
1725969913.101;50;15.62;36599.87
1725969913.150;50;17.73;40073.27
1725969913.201;50;17.00;38880.00
1725969913.250;50;17.00;38880.00
1725969913.300;50;17.00;38880.00
1725969913.351;50;14.79;35231.07
1725969913.401;50;16.92;38739.20
1725969913.451;50;14.40;34578.13
1725969913.502;50;14.40;34578.13
1725969913.551;50;14.40;34578.13
1725969913.601;50;17.23;39261.07
1725969913.651;50;15.66;36663.27
1725969913.701;50;15.66;36663.27
1725969913.751;50;15.66;36663.27
1725969913.803;50;17.41;39545.13
1725969913.852;50;17.41;39545.13
1725969913.902;50;17.41;39545.13
1725969913.953;50;17.20;39199.00
1725969914.003;50;14.57;34868.40
1725969914.052;50;15.13;35795.54
1725969914.102;50;15.13;35795.54
1725969914.152;50;15.13;35795.54
1725969914.202;50;17.09;39024.54
1725969914.253;50;15.57;36515.00
1725969914.302;50;15.57;36515.00
1725969914.353;50;15.57;36515.00
1725969914.402;50;15.41;36250.13
1725969914.453;50;14.23;34301.20
1725969914.502;50;14.23;34301.20
1725969914.553;50;14.87;35365.33
1725969914.603;50;16.26;37659.54
1725969914.652;50;17.23;39259.60
1725969914.703;50;17.23;39259.60
1725969914.753;50;17.23;39259.60
1725969914.802;50;16.45;37975.60
1725969914.853;50;14.97;35523.07
1725969914.904;50;14.97;35523.07
1725969914.953;50;14.97;35523.07
1725969915.004;50;14.76;35178.27
1725969915.053;50;16.28;37679.93
1725969915.104;50;16.28;37679.93
1725969915.154;50;17.10;39047.20
1725969915.205;50;16.66;38321.93
1725969915.255;50;16.66;38321.93
1725969915.305;50;16.66;38321.93
1725969915.355;50;17.58;39833.13
1725969915.405;50;17.91;40371.80
1725969915.455;50;17.91;40371.80
1725969915.505;50;17.91;40371.80
1725969915.555;50;16.00;37221.54
1725969915.605;50;17.09;39017.20
1725969915.655;50;16.12;37425.46
1725969915.705;50;16.12;37425.46
1725969915.755;50;16.12;37425.46
1725969915.805;50;15.16;35835.87
1725969915.855;50;18.08;40666.20
1725969915.905;50;18.08;40666.20
1725969915.955;50;18.08;40666.20
1725969916.005;50;14.94;35478.27
1725969916.055;50;14.20;34259.87
1725969916.105;50;14.20;34259.87
1725969916.156;50;17.59;39846.73
1725969916.205;50;17.46;39630.67
1725969916.256;50;15.79;36873.20
1725969916.305;50;15.79;36873.20
1725969916.356;50;15.79;36873.20
1725969916.405;50;14.91;35428.67
1725969928.965;50;14.24;34312.00
1725969929.015;50;14.24;34312.00
1725969929.066;50;14.24;34312.00
1725969929.117;50;14.24;34312.00
1725969929.166;50;17.78;40158.13
1725969929.216;50;18.13;40742.67
1725969929.266;50;18.13;40742.67
1725969929.317;50;18.13;40742.67
1725969929.366;50;16.87;38668.60
1725969929.417;50;16.87;38668.60
1725969929.468;50;16.87;38668.60
1725969929.517;50;15.46;36326.33
1725969929.567;50;15.19;35890.00
1725969929.617;50;15.19;35890.00
1725969929.667;50;15.19;35890.00
1725969929.717;50;17.85;40280.46
1725969929.787;50;17.85;40280.46
1725969929.817;50;17.85;40280.46
1725969929.868;50;16.73;38429.93
1725969929.917;50;16.73;38429.93
1725969929.968;50;17.27;39322.27
1725969930.018;50;14.59;34895.33
1725969930.068;50;15.13;35785.07
1725969930.119;50;15.13;35785.07
1725969930.169;50;15.13;35785.07
1725969930.219;50;16.32;37755.46
1725969930.268;50;15.23;35952.00
1725969930.318;50;15.23;35952.00
1725969930.368;50;15.23;35952.00
1725969930.419;50;15.23;35952.00
1725969930.469;50;17.89;40344.73
1725969930.519;50;15.14;35799.73
1725969930.570;50;17.23;39248.40
1725969930.620;50;17.23;39248.40
1725969930.671;50;16.16;37496.20
1725969930.720;50;14.74;35150.00
1725969930.771;50;17.13;39086.54
1725969930.820;50;17.13;39086.54
1725969930.872;50;17.13;39086.54
1725969930.921;50;17.04;38941.54
1725969930.972;50;17.08;39001.67
1725969931.021;50;17.08;39001.67
1725969931.072;50;17.08;39001.67
1725969931.122;50;18.23;40902.20
1725969931.172;50;17.57;39817.00
1725969931.222;50;17.57;39817.00
1725969931.273;50;17.90;40367.67
1725969931.323;50;14.27;34374.13
1725969931.373;50;14.61;34922.80
1725969931.423;50;14.61;34922.80
1725969931.473;50;14.23;34301.73
1725969931.523;50;17.01;38899.46
1725969931.573;50;17.01;38899.46
1725969931.624;50;17.01;38899.46
1725969931.674;50;14.26;34360.80
1725969931.724;50;14.66;35016.80
1725969931.774;50;14.62;34950.80
1725969931.825;50;14.62;34950.80
1725969931.874;50;14.87;35365.73
1725969931.924;50;14.41;34603.20
1725969931.974;50;14.62;34942.00
1725969932.024;50;14.62;34942.00
1725969932.074;50;14.62;34942.00
1725969932.124;50;15.45;36319.27
1725969932.175;50;17.44;39601.87
1725969932.224;50;17.44;39601.87
1725969932.274;50;17.44;39601.87
1725969932.324;50;17.91;40382.80
1725969932.374;50;16.58;38179.00
1725969932.424;50;16.58;38179.00
1725969932.474;50;16.58;38179.00
1725969932.524;50;14.35;34493.27
1725969932.574;50;16.16;37491.80
1725969932.624;50;16.16;37491.80
1725969932.674;50;16.16;37491.80
1725969932.724;50;14.59;34893.60
1725969932.774;50;14.50;34744.00
1725969932.824;50;14.50;34744.00
1725969932.875;50;14.50;34744.00
1725969932.925;50;17.82;40237.13
1725969932.974;50;17.29;39362.54
1725969933.024;50;17.29;39362.54
1725969933.074;50;17.29;39362.54
1725969933.124;50;16.12;37425.07
1725969933.175;50;17.27;39320.20
1725969933.225;50;17.27;39320.20
1725969933.275;50;17.27;39320.20
1725969933.325;50;14.74;35137.07
1725969933.375;50;14.53;34796.13
1725969933.425;50;14.53;34796.13
1725969933.475;50;14.90;35411.27
1725969933.526;50;16.49;38032.33
1725969933.575;50;14.30;34410.93
1725969933.625;50;14.30;34410.93
1725969933.675;50;17.39;39519.46
1725969933.726;50;16.51;38074.60
1725969933.776;50;16.51;38074.60
1725969933.825;50;16.51;38074.60
1725969933.876;50;16.71;38405.13
1725969933.926;50;16.65;38301.27
1725969946.985;50;14.81;35265.46
1725969947.035;50;14.81;35265.46
1725969947.085;50;14.81;35265.46
1725969947.135;50;14.52;34784.54
1725969947.186;50;14.42;34616.27
1725969947.237;50;14.42;34616.27
1725969947.286;50;14.42;34616.27
1725969947.337;50;14.42;34616.27
1725969947.387;50;15.07;35685.60
1725969947.437;50;14.52;34777.07
1725969947.487;50;16.74;38439.40
1725969947.537;50;15.26;36008.80
1725969947.587;50;15.26;36008.80
1725969947.637;50;15.26;36008.80
1725969947.687;50;17.16;39148.13
1725969947.737;50;17.84;40259.07
1725969947.787;50;17.80;40204.13
1725969947.838;50;18.37;41134.73
1725969947.887;50;18.37;41134.73
1725969947.938;50;18.37;41134.73
1725969947.988;50;15.46;36339.67
1725969948.042;50;17.10;39043.54
1725969948.090;50;17.78;40162.73
1725969948.140;50;17.78;40162.73
1725969948.189;50;17.78;40162.73
1725969948.239;50;16.42;37910.54
1725969948.289;50;16.35;37809.93
1725969948.340;50;16.12;37420.00
1725969948.390;50;16.12;37420.00
1725969948.440;50;16.12;37420.00
1725969948.489;50;14.29;34402.67
1725969948.539;50;17.21;39228.87
1725969948.591;50;17.31;39390.46
1725969948.641;50;17.31;39390.46
1725969948.690;50;16.76;38472.60
1725969948.741;50;15.93;37114.00
1725969948.792;50;17.60;39861.00
1725969948.842;50;17.60;39861.00
1725969948.892;50;16.19;37531.40
1725969948.942;50;16.09;37373.27
1725969948.992;50;17.52;39740.13
1725969949.042;50;17.52;39740.13
1725969949.092;50;17.52;39740.13
1725969949.142;50;17.64;39940.27
1725969949.191;50;17.76;40123.27
1725969949.242;50;17.76;40123.27
1725969949.293;50;17.76;40123.27
1725969949.344;50;16.51;38063.33
1725969949.394;50;18.00;40527.07
1725969949.444;50;18.00;40527.07
1725969949.493;50;16.88;38680.67
1725969949.544;50;17.63;39911.46
1725969949.595;50;16.96;38810.67
1725969949.645;50;16.96;38810.67
1725969949.694;50;14.98;35539.33
1725969949.744;50;15.47;36357.20
1725969949.795;50;15.47;36357.20
1725969949.845;50;15.47;36357.20
1725969949.894;50;14.81;35263.20
1725969949.945;50;15.62;36600.73
1725969949.994;50;15.62;36600.73
1725969950.044;50;15.62;36600.73
1725969950.094;50;17.34;39443.80
1725969950.145;50;14.89;35397.07
1725969950.195;50;14.89;35390.93
1725969950.245;50;14.89;35390.93
1725969950.295;50;14.89;35390.93
1725969950.345;50;17.98;40491.46
1725969950.395;50;15.57;36513.07
1725969950.445;50;15.57;36513.07
1725969950.495;50;15.57;36513.07
1725969950.545;50;15.57;36513.07
1725969950.595;50;15.75;36805.20
1725969950.646;50;17.86;40301.00
1725969950.695;50;15.47;36358.27
1725969950.746;50;15.47;36358.27
1725969950.796;50;15.41;36257.67
1725969950.846;50;14.29;34403.67
1725969950.896;50;14.94;35467.46
1725969950.946;50;14.94;35467.46
1725969950.996;50;14.94;35467.46
1725969951.046;50;15.24;35967.60
1725969951.096;50;15.45;36315.20
1725969951.146;50;15.45;36315.20
1725969951.196;50;15.45;36315.20
1725969951.247;50;17.43;39588.67
1725969951.298;50;16.51;38073.13
1725969951.348;50;16.51;38073.13
1725969951.398;50;16.51;38073.13
1725969951.448;50;16.18;37526.60
