UnixTimestamp;Microseconds;MilliAmpere;BaseValue
1738857942.602;500;16.27;39020.27
1738857942.648;500;16.27;39020.27
1738857942.699;500;16.43;39471.54
1738857942.749;500;15.22;36136.13
1738857942.799;500;15.22;36136.13
1738857942.849;500;16.74;40332.80
1738857942.900;500;15.86;37893.33
1738857942.949;500;15.86;37893.33
1738857943.000;500;15.86;37893.33
1738857943.050;500;18.23;44418.87
1738857943.100;500;18.23;44418.87
1738857943.150;500;18.23;44418.87
1738857943.199;500;16.45;39525.87
1738857943.249;500;16.45;39525.87
1738857943.300;500;16.45;39525.87
1738857943.350;500;18.28;44551.80
1738857943.400;500;17.04;41144.40
1738857943.449;500;17.04;41144.40
1738857943.499;500;17.04;41144.40
1738857943.550;500;17.84;43341.07
1738857943.599;500;17.84;43341.07
1738857943.649;500;17.84;43341.07
1738857943.700;500;17.51;42454.87
1738857943.750;500;18.22;44396.93
1738857943.800;500;18.22;44396.93
1738857943.850;500;15.98;38226.33
1738857943.899;500;15.98;38226.33
1738857943.950;500;15.98;38226.33
1738857944.000;500;16.47;39585.20
1738857944.051;500;16.47;39585.20
1738857944.102;500;16.47;39585.20
1738857944.151;500;15.31;36381.73
1738857944.203;500;15.88;37946.80
1738857944.252;500;15.88;37946.80
1738857944.302;500;15.88;37946.80
1738857944.353;500;18.54;45276.60
1738857944.403;500;18.54;45276.60
1738857944.453;500;18.54;45276.60
1738857944.502;500;17.34;41981.93
1738857944.552;500;17.88;43460.00
1738857944.603;500;17.88;43460.00
1738857944.652;500;18.13;44139.20
1738857944.703;500;18.29;44601.46
1738857944.753;500;16.55;39786.93
1738857944.803;500;16.55;39786.93
1738857944.852;500;15.33;36442.67
1738857944.903;500;15.97;38185.20
1738857944.952;500;15.97;38185.20
1738857945.003;500;15.97;38185.20
1738857945.053;500;15.89;37981.07
1738857945.103;500;15.89;37981.07
1738857945.152;500;15.89;37981.07
1738857945.202;500;17.83;43331.87
1738857945.253;500;17.83;43331.87
1738857945.302;500;17.83;43331.87
1738857945.353;500;15.76;37608.54
1738857945.403;500;15.76;37608.54
1738857945.454;500;15.76;37608.54
1738857945.503;500;16.62;39992.20
1738857945.554;500;16.62;39992.20
1738857945.603;500;16.62;39992.20
1738857945.653;500;16.85;40612.87
1738857945.704;500;16.85;40612.87
1738857945.754;500;16.85;40612.87
1738857945.804;500;16.55;39804.67
1738857945.853;500;16.55;39804.67
1738857945.903;500;16.55;39804.67
1738857945.955;500;15.34;36451.00
1738857946.005;500;15.81;37750.00
1738857946.055;500;15.81;37750.00
1738857946.105;500;15.81;37750.00
1738857946.155;500;17.40;42133.80
1738857946.205;500;18.41;44910.87
1738857946.255;500;18.41;44910.87
1738857946.306;500;18.41;44910.87
1738857946.356;500;19.23;47184.46
1738857946.406;500;19.23;47184.46
1738857946.456;500;19.23;47184.46
1738857946.506;500;16.50;39660.93
1738857946.556;500;16.50;39660.93
1738857946.607;500;16.50;39660.93
1738857946.657;500;18.85;46125.73
1738857946.706;500;18.85;46125.73
1738857946.757;500;18.85;46125.73
1738857946.807;500;16.45;39526.60
1738857956.261;500;16.51;39693.13
1738857956.311;500;16.51;39693.13
1738857956.361;500;15.17;35983.20
1738857956.411;500;15.06;35684.27
1738857956.461;500;15.06;35684.27
1738857956.511;500;16.18;38773.87
1738857956.561;500;17.02;41096.40
1738857956.613;500;17.02;41096.40
1738857956.663;500;16.10;38563.33
1738857956.712;500;16.10;38563.33
1738857956.762;500;16.10;38563.33
1738857956.813;500;16.88;40700.40
1738857956.862;500;17.00;41039.93
1738857956.913;500;17.00;41039.93
1738857956.963;500;16.35;39252.46
1738857957.013;500;16.35;39252.46
1738857957.063;500;16.35;39252.46
1738857957.113;500;18.97;46465.60
1738857957.164;500;18.97;46465.60
1738857957.215;500;18.97;46465.60
1738857957.265;500;16.08;38497.40
1738857957.315;500;16.08;38497.40
1738857957.364;500;15.05;35651.46
1738857957.415;500;17.19;41567.33
1738857957.465;500;17.19;41567.33
1738857957.515;500;17.19;41567.33
1738857957.565;500;18.59;45412.46
1738857957.615;500;18.10;44059.54
1738857957.665;500;18.10;44059.54
1738857957.715;500;18.31;44641.33
1738857957.765;500;15.99;38239.27
1738857957.815;500;15.99;38239.27
1738857957.865;500;15.99;38239.27
1738857957.915;500;17.88;43456.80
1738857957.965;500;18.47;45081.67
1738857958.015;500;18.47;45081.67
1738857958.065;500;16.73;40300.40
1738857958.115;500;16.80;40485.07
1738857958.165;500;16.80;40485.07
1738857958.216;500;17.20;41594.67
1738857958.265;500;17.55;42554.20
1738857958.316;500;17.55;42554.20
1738857958.365;500;18.57;45370.87
1738857958.416;500;17.11;41326.87
1738857958.466;500;17.11;41326.87
1738857958.515;500;17.11;41326.87
1738857958.566;500;18.26;44502.13
1738857958.616;500;18.26;44502.13
1738857958.666;500;18.26;44502.13
1738857958.721;500;15.94;38110.93
1738857958.769;500;15.67;37371.87
1738857958.819;500;15.67;37371.87
1738857958.869;500;16.00;38284.80
1738857958.919;500;16.26;39009.60
1738857958.969;500;16.26;39009.60
1738857959.018;500;16.26;39009.60
1738857959.068;500;17.95;43647.67
1738857959.119;500;17.98;43736.07
1738857959.169;500;17.98;43736.07
1738857959.219;500;17.98;43736.07
1738857959.269;500;18.85;46133.46
1738857959.320;500;18.85;46133.46
1738857959.370;500;18.85;46133.46
1738857959.421;500;18.23;44415.46
1738857959.470;500;18.23;44415.46
1738857959.521;500;18.23;44415.46
1738857959.570;500;16.16;38716.33
1738857959.621;500;16.16;38716.33
1738857959.671;500;16.41;39408.60
1738857959.721;500;14.87;35172.40
1738857959.771;500;14.87;35172.40
1738857959.823;500;14.87;35172.40
1738857959.876;500;17.60;42679.40
1738857959.924;500;17.60;42679.40
1738857959.974;500;17.60;42679.40
1738857960.024;500;15.19;36044.13
1738857969.233;500;15.21;36103.46
1738857969.283;500;15.21;36103.46
1738857969.333;500;15.21;36103.46
1738857969.383;500;15.79;37689.33
1738857969.433;500;15.79;37689.33
1738857969.483;500;17.18;41537.00
1738857969.533;500;18.14;44171.93
1738857969.583;500;18.14;44171.93
1738857969.633;500;18.14;44171.93
1738857969.683;500;17.69;42923.54
1738857969.733;500;17.69;42923.54
1738857969.783;500;17.69;42923.54
1738857969.833;500;16.24;38948.13
1738857969.883;500;17.79;43214.27
1738857969.933;500;17.79;43214.27
1738857969.983;500;17.88;43471.46
1738857970.033;500;18.30;44606.60
1738857970.082;500;17.59;42648.33
1738857970.133;500;17.59;42648.33
1738857970.183;500;17.83;43319.93
1738857970.234;500;15.97;38191.67
1738857970.283;500;15.97;38191.67
1738857970.334;500;15.97;38191.67
1738857970.384;500;16.32;39156.54
1738857970.434;500;16.32;39156.54
1738857970.484;500;16.32;39156.54
1738857970.534;500;16.99;41020.87
1738857970.584;500;18.15;44192.87
1738857970.634;500;18.15;44192.87
1738857970.684;500;18.04;43905.93
1738857970.734;500;18.04;43905.93
1738857970.784;500;18.04;43905.93
1738857970.835;500;16.48;39601.87
1738857970.884;500;16.48;39601.87
1738857970.935;500;16.48;39601.87
1738857970.985;500;17.68;42912.80
1738857971.035;500;17.68;42912.80
1738857971.085;500;17.68;42912.80
1738857971.135;500;14.90;35244.46
1738857971.185;500;18.22;44409.87
1738857971.235;500;18.22;44409.87
1738857971.285;500;16.39;39364.67
1738857971.336;500;15.20;36070.73
1738857971.385;500;15.20;36070.73
1738857971.435;500;15.20;36070.73
1738857971.485;500;15.52;36944.67
1738857971.536;500;15.52;36944.67
1738857971.585;500;15.52;36944.67
1738857971.636;500;17.11;41337.73
1738857971.686;500;15.16;35969.80
1738857971.736;500;15.16;35969.80
1738857971.786;500;15.16;35969.80
1738857971.836;500;16.30;39115.73
1738857971.887;500;17.78;43187.54
1738857971.938;500;17.78;43187.54
1738857971.987;500;15.20;36064.40
1738857972.037;500;15.70;37452.00
1738857972.087;500;15.70;37452.00
1738857972.137;500;15.70;37452.00
1738857972.188;500;17.59;42671.40
1738857972.238;500;17.59;42671.40
1738857972.288;500;17.59;42671.40
1738857972.338;500;16.42;39430.40
1738857972.387;500;16.42;39430.40
1738857972.438;500;16.42;39430.40
1738857972.488;500;18.28;44549.73
1738857972.538;500;18.28;44549.73
1738857972.588;500;18.28;44549.73
1738857972.638;500;16.48;39608.54
1738857972.688;500;16.48;39607.67
1738857972.739;500;16.48;39607.67
1738857972.788;500;17.22;41645.73
1738857972.838;500;17.77;43145.33
1738857972.888;500;17.77;43145.33
1738857972.938;500;17.77;43145.33
1738857972.988;500;14.75;34838.67
1738857973.039;500;14.76;34866.67
1738857973.089;500;14.76;34866.67
1738857973.139;500;16.05;38423.93
1738857973.190;500;15.10;35810.13
1738857973.239;500;15.10;35810.13
1738857973.289;500;15.23;36157.87
1738857973.339;500;15.23;36157.87
1738857973.390;500;15.23;36157.87
1738857973.440;500;17.23;41656.13
1738858119.829;92;10.00;37184.27
1738858119.880;92;10.00;37081.87
1738858119.930;92;10.00;37081.87
1738858119.980;93;10.00;37674.67
1738858120.030;96;10.00;38860.20
1738858120.080;96;10.00;38860.20
1738858120.131;109;10.00;44436.27
1738858120.180;105;10.00;42614.27
1738858120.231;105;10.00;42614.27
1738858120.280;111;10.00;45313.73
1738858120.331;90;10.00;36123.20
1738858120.380;90;10.00;36123.20
1738858120.431;90;10.00;36123.20
1738858120.481;90;10.00;36069.33
1738858120.531;92;10.00;37008.93
1738858120.581;92;10.00;37008.93
1738858120.631;99;10.00;39959.54
1738858120.680;91;10.00;36421.33
1738858120.731;91;10.00;36421.33
1738858120.780;91;10.00;36421.33
1738858120.830;94;10.00;37938.27
1738858120.881;94;10.00;37938.27
1738858120.931;99;10.00;40191.60
1738858120.980;104;10.00;42521.00
1738858121.031;104;10.00;42521.00
1738858121.082;106;10.00;43331.46
1738858121.131;108;10.00;44230.67
1738858121.182;108;10.00;44230.67
1738858121.233;108;10.00;44230.67
1738858121.282;93;10.00;37269.54
1738858121.332;93;10.00;37269.54
1738858121.383;92;10.00;36874.07
1738858121.433;100;10.00;40539.93
1738858121.483;100;10.00;40539.93
1738858121.534;97;10.00;39401.00
1738858121.583;99;10.00;40041.80
1738858121.634;99;10.00;40041.80
1738858121.684;99;10.00;40041.80
1738858121.733;101;10.00;40995.60
1738858121.783;99;10.00;40194.00
1738858121.833;99;10.00;40194.00
1738858121.884;104;10.00;42353.73
1738858121.934;112;10.00;45835.67
1738858121.984;112;10.00;45835.67
1738858122.034;106;10.00;43239.87
1738858122.084;89;10.00;35541.60
1738858122.134;89;10.00;35541.60
1738858122.183;89;10.00;35541.60
1738858122.234;96;10.00;38616.80
1738858122.284;97;10.00;39136.73
1738858122.334;97;10.00;39136.73
1738858122.383;102;10.00;41563.27
1738858122.433;95;10.00;38257.07
1738858122.484;95;10.00;38257.07
1738858122.534;93;10.00;37307.87
1738858122.584;95;10.00;38227.46
1738858122.634;95;10.00;38227.46
1738858122.684;95;10.00;38227.46
1738858122.733;109;10.00;44501.00
1738858122.784;109;10.00;44501.00
1738858122.835;109;10.00;44501.00
1738858122.885;92;10.00;36815.60
1738858122.935;98;10.00;39730.33
1738858122.985;98;10.00;39730.33
1738858123.035;98;10.00;39730.33
1738858123.085;103;10.00;42058.67
1738858123.135;103;10.00;42058.67
1738858123.185;103;10.00;42058.67
1738858123.235;101;10.00;40948.54
1738858123.285;98;10.00;39647.73
1738858123.336;98;10.00;39647.73
1738858123.385;99;10.00;40316.40
1738858123.435;88;10.00;35448.80
1738858123.485;88;10.00;35448.80
1738858123.535;88;10.00;35448.80
1738858123.585;98;10.00;39503.73
1738858123.636;98;10.00;39503.73
1738858123.686;98;10.00;39503.73
1738858123.736;103;10.00;41907.54
1738858123.785;103;10.00;41907.54
1738858123.836;103;10.00;41907.54
1738858123.886;97;10.00;39338.87
1738858134.163;91;10.00;36599.54
1738858134.213;91;10.00;36599.54
1738858134.263;97;10.00;39282.07
1738858134.313;99;10.00;40285.46
1738858134.363;99;10.00;40285.46
1738858134.413;93;10.00;37455.73
1738858134.463;93;10.00;37406.27
1738858134.513;93;10.00;37406.27
1738858134.563;98;10.00;39771.93
1738858134.613;99;10.00;40052.80
1738858134.663;99;10.00;40052.80
1738858134.714;105;10.00;42777.00
1738858134.763;96;10.00;38607.93
1738858134.814;96;10.00;38607.93
1738858134.864;94;10.00;37782.40
1738858134.914;89;10.00;35709.20
1738858134.965;89;10.00;35709.20
1738858135.015;95;10.00;38524.80
1738858135.065;95;10.00;38524.80
1738858135.115;95;10.00;38524.80
1738858135.166;96;10.00;38846.80
1738858135.216;104;10.00;42394.93
1738858135.266;104;10.00;42394.93
1738858135.315;105;10.00;42709.07
1738858135.365;89;10.00;35708.27
1738858135.415;98;10.00;39498.46
1738858135.465;98;10.00;39498.46
1738858135.517;106;10.00;43415.60
1738858135.567;92;10.00;36838.60
1738858135.617;92;10.00;36838.60
1738858135.668;94;10.00;38073.73
1738858135.717;104;10.00;42437.46
1738858135.767;104;10.00;42437.46
1738858135.817;104;10.00;42437.46
1738858135.868;97;10.00;39034.93
1738858135.918;90;10.00;36259.13
1738858135.968;90;10.00;36259.13
1738858136.017;95;10.00;38434.80
1738858136.068;99;10.00;39945.27
1738858136.117;99;10.00;39945.27
1738858136.168;99;10.00;39945.27
1738858136.218;104;10.00;42189.80
1738858136.268;103;10.00;41963.07
1738858136.318;103;10.00;41963.07
1738858136.367;96;10.00;38761.00
1738858136.417;106;10.00;43144.93
1738858136.468;106;10.00;43144.93
1738858136.517;104;10.00;42569.27
1738858136.568;98;10.00;39648.73
1738858136.617;98;10.00;39648.73
1738858136.668;98;10.00;39648.73
1738858136.718;101;10.00;41111.67
1738858136.768;99;10.00;40084.13
1738858136.818;99;10.00;40084.13
1738858136.869;99;10.00;40084.13
1738858136.918;100;10.00;40798.07
1738858136.968;95;10.00;38151.20
1738858137.018;95;10.00;38151.20
1738858137.069;95;10.00;38151.20
1738858137.119;92;10.00;37021.07
1738858137.169;92;10.00;36830.54
1738858137.219;92;10.00;36830.54
1738858137.268;99;10.00;40353.13
1738858137.319;91;10.00;36563.46
1738858137.369;91;10.00;36563.46
1738858137.420;91;10.00;36563.46
1738858137.470;90;10.00;36230.67
1738858146.990;93;10.00;37323.73
1738858147.039;88;10.00;35332.60
1738858147.089;88;10.00;35332.60
1738858147.140;87;10.00;34739.20
1738858147.190;87;10.00;34789.87
1738858147.240;87;10.00;34789.87
1738858147.290;87;10.00;34789.87
1738858147.340;107;10.00;43881.27
1738858147.390;107;10.00;43881.27
1738858147.440;107;10.00;43881.27
1738858147.490;94;10.00;38002.27
1738858147.540;94;10.00;38002.27
1738858147.590;94;10.00;38002.27
1738858147.640;103;10.00;41918.73
1738858147.689;103;10.00;41918.73
1738858147.739;101;10.00;40823.46
1738858147.791;98;10.00;39511.20
1738858147.840;98;10.00;39511.20
1738858147.891;98;10.00;39511.20
1738858147.941;105;10.00;43032.46
1738858147.990;105;10.00;43032.46
1738858148.040;105;10.00;43032.46
1738858148.090;93;10.00;37560.54
1738858148.141;93;10.00;37560.54
1738858148.190;93;10.00;37560.54
1738858148.241;95;10.00;38166.80
1738858148.291;95;10.00;38166.80
1738858148.341;95;10.00;38166.80
1738858148.391;94;10.00;37708.13
1738858148.441;94;10.00;37708.13
1738858148.492;94;10.00;37708.13
1738858148.545;98;10.00;39619.67
1738858148.593;99;10.00;40322.33
1738858148.643;99;10.00;40322.33
1738858148.693;99;10.00;40322.33
1738858148.743;104;10.00;42592.13
1738858148.793;104;10.00;42592.13
1738858148.843;104;10.00;42592.13
1738858148.893;102;10.00;41391.54
1738858148.943;102;10.00;41391.54
1738858148.993;102;10.00;41391.54
1738858149.043;101;10.00;41122.13
1738858149.093;102;10.00;41558.20
1738858149.142;102;10.00;41558.20
1738858149.193;102;10.00;41558.20
1738858149.243;102;10.00;41501.07
1738858149.293;102;10.00;41501.07
1738858149.343;102;10.00;41501.07
1738858149.393;91;10.00;36773.00
1738858149.443;94;10.00;37866.60
1738858149.493;94;10.00;37866.60
1738858149.543;97;10.00;39305.80
1738858149.594;97;10.00;39305.80
1738858149.643;97;10.00;39305.80
1738858149.694;96;10.00;38695.93
1738858149.744;89;10.00;35474.93
1738858149.794;89;10.00;35474.93
1738858149.844;89;10.00;35523.20
1738858149.894;88;10.00;35225.20
1738858149.944;88;10.00;35225.20
1738858149.994;88;10.00;35225.20
1738858150.044;96;10.00;38667.07
1738858150.094;96;10.00;38667.07
1738858150.144;96;10.00;38667.07
1738858150.194;96;10.00;38708.93
1738858150.244;96;10.00;38708.93
1738858150.294;96;10.00;38708.93
1738858150.344;96;10.00;38975.80
1738858150.394;96;10.00;38975.80
1738858150.444;96;10.00;38975.80
1738858150.494;108;10.00;44034.40
1738858150.544;108;10.00;44034.40
1738858150.594;108;10.00;44034.40
1738858150.644;94;10.00;37726.13
1738858150.695;94;10.00;37726.13
1738858150.744;94;10.00;37726.13
1738858150.795;94;10.00;37967.13
1738858150.844;94;10.00;37967.13
1738858150.894;94;10.00;37967.13
1738858150.946;97;10.00;39402.20
1738858150.996;97;10.00;39402.20
1738858151.046;97;10.00;39402.20
1738858151.095;95;10.00;38420.73
1738858290.895;97;30.00;39390.13
1738858290.945;94;30.00;37974.13
1738858290.995;94;30.00;37974.13
1738858291.045;94;30.00;37849.13
1738858291.095;89;30.00;35666.40
1738858291.145;89;30.00;35666.40
1738858291.195;95;30.00;38495.46
1738858291.246;95;30.00;38310.60
1738858291.296;95;30.00;38310.60
1738858291.345;92;30.00;36951.07
1738858291.396;97;30.00;39206.00
1738858291.446;97;30.00;39206.00
1738858291.495;101;30.00;40987.54
1738858291.547;90;30.00;36161.60
1738858291.597;90;30.00;36161.60
1738858291.646;94;30.00;38094.80
1738858291.696;100;30.00;40645.40
1738858291.746;100;30.00;40645.40
1738858291.796;100;30.00;40645.40
1738858291.847;101;30.00;40863.27
1738858291.897;101;30.00;40824.93
1738858291.946;101;30.00;40824.93
1738858291.998;101;30.00;40824.93
1738858292.047;90;30.00;36148.80
1738858292.098;90;30.00;36148.80
1738858292.148;90;30.00;36148.80
1738858292.198;99;30.00;40040.80
1738858292.247;112;30.00;46044.87
1738858292.298;112;30.00;46044.87
1738858292.347;101;30.00;40850.67
1738858292.397;95;30.00;38445.20
1738858292.448;95;30.00;38445.20
1738858292.498;95;30.00;38445.20
1738858292.548;108;30.00;44104.00
1738858292.598;108;30.00;44104.00
1738858292.648;108;30.00;44104.00
1738858292.698;99;30.00;39971.13
1738858292.748;99;30.00;39971.13
1738858292.799;99;30.00;39971.13
1738858292.849;108;30.00;44257.13
1738858292.899;108;30.00;44257.13
1738858292.949;108;30.00;44257.13
1738858292.999;112;30.00;45918.67
1738858293.049;97;30.00;39252.33
1738858293.099;97;30.00;39252.33
1738858293.150;92;30.00;37170.13
1738858293.200;104;30.00;42314.67
1738858293.250;104;30.00;42314.67
1738858293.300;104;30.00;42314.67
1738858293.350;100;30.00;40384.33
1738858293.400;102;30.00;41514.93
1738858293.450;102;30.00;41514.93
1738858293.501;102;30.00;41514.93
1738858293.550;96;30.00;38694.67
1738858293.600;92;30.00;37011.60
1738858293.651;92;30.00;37011.60
1738858293.701;95;30.00;38212.60
1738858293.751;90;30.00;36055.20
1738858293.801;90;30.00;36055.20
1738858293.851;91;30.00;36545.33
1738858293.902;91;30.00;36545.33
1738858293.952;91;30.00;36545.33
1738858294.002;104;30.00;42351.00
1738858294.051;97;30.00;39326.60
1738858294.101;97;30.00;39326.60
1738858294.151;97;30.00;39326.60
1738858294.202;106;30.00;43289.20
1738858294.252;116;30.00;47524.33
1738858294.302;116;30.00;47524.33
1738858294.352;101;30.00;41059.13
1738858294.401;98;30.00;39480.20
1738858294.452;98;30.00;39480.20
1738858294.503;98;30.00;39480.20
1738858294.553;107;30.00;43729.00
1738858294.603;107;30.00;43729.00
1738858294.653;107;30.00;43729.00
1738858294.703;99;30.00;39973.80
1738858294.753;99;30.00;39973.80
1738858294.803;99;30.00;39973.80
1738858294.853;104;30.00;42338.46
1738858294.903;104;30.00;42338.46
1738858294.953;104;30.00;42338.46
1738858295.003;105;30.00;42767.20
1738858295.053;105;30.00;42767.20
1738858295.103;105;30.00;42767.20
1738858295.153;92;30.00;36801.87
1738858304.647;95;30.00;38522.27
1738858304.697;89;30.00;35468.80
1738858304.747;89;30.00;35468.80
1738858304.797;89;30.00;35468.80
1738858304.847;88;30.00;35179.46
1738858304.898;88;30.00;35179.46
1738858304.947;88;30.00;35179.46
1738858304.997;110;30.00;45236.27
1738858305.048;106;30.00;43085.13
1738858305.098;106;30.00;43085.13
1738858305.148;93;30.00;37264.93
1738858305.197;96;30.00;38861.80
1738858305.247;96;30.00;38861.80
1738858305.298;96;30.00;38861.80
1738858305.348;95;30.00;38248.93
1738858305.397;95;30.00;38248.93
1738858305.447;112;30.00;45860.20
1738858305.498;91;30.00;36392.00
1738858305.547;91;30.00;36392.00
1738858305.597;91;30.00;36392.00
1738858305.647;88;30.00;35392.27
1738858305.698;88;30.00;35392.27
1738858305.747;88;30.00;35392.27
1738858305.798;97;30.00;39339.54
1738858305.848;87;30.00;34984.54
1738858305.899;87;30.00;34984.54
1738858305.949;88;30.00;35303.33
1738858305.999;96;30.00;38646.60
1738858306.049;92;30.00;37109.07
1738858306.099;92;30.00;37109.07
1738858306.149;104;30.00;42448.13
1738858306.199;104;30.00;42166.00
1738858306.249;104;30.00;42166.00
1738858306.299;104;30.00;42166.00
1738858306.349;91;30.00;36753.00
1738858306.400;91;30.00;36753.00
1738858306.449;97;30.00;39037.27
1738858306.500;95;30.00;38489.67
1738858306.550;95;30.00;38489.67
1738858306.601;95;30.00;38489.67
1738858306.650;109;30.00;44715.40
1738858306.701;107;30.00;43556.87
1738858306.752;107;30.00;43556.87
1738858306.803;91;30.00;36396.40
1738858306.853;109;30.00;44526.46
1738858306.903;109;30.00;44526.46
1738858306.953;94;30.00;37851.80
1738858307.003;97;30.00;39378.00
1738858307.053;97;30.00;39378.00
1738858307.103;97;30.00;39378.00
1738858307.153;98;30.00;39688.54
1738858307.203;98;30.00;39688.54
1738858307.253;98;30.00;39688.54
1738858307.303;92;30.00;37214.93
1738858307.353;101;30.00;40942.93
1738858307.403;101;30.00;40942.93
1738858307.453;101;30.00;40942.93
1738858307.503;94;30.00;37876.20
1738858307.553;94;30.00;37876.20
1738858307.603;94;30.00;37876.20
1738858307.653;100;30.00;40633.67
1738858307.703;98;30.00;39545.20
1738858307.753;98;30.00;39545.20
1738858307.804;98;30.00;39545.20
1738858307.854;94;30.00;37890.93
1738858307.904;94;30.00;37890.93
1738858307.954;94;30.00;37890.93
1738858308.004;102;30.00;41666.20
1738858308.053;102;30.00;41538.93
1738858308.104;102;30.00;41538.93
1738858308.153;111;30.00;45579.00
1738858308.203;91;30.00;36660.13
1738858308.254;91;30.00;36660.13
1738858308.304;100;30.00;40555.67
1738858308.354;105;30.00;42680.73
1738858308.404;105;30.00;42680.73
1738858308.454;105;30.00;42680.73
1738858308.504;101;30.00;41131.87
1738858308.554;109;30.00;44772.73
1738858308.604;109;30.00;44772.73
1738858308.654;94;30.00;37940.40
1738858308.704;99;30.00;40174.67
1738858308.754;99;30.00;40174.67
1738858308.805;101;30.00;41229.80
1738858308.854;93;30.00;37329.07
1738858308.904;93;30.00;37329.07
1738858308.954;94;30.00;38088.93
1738858318.733;91;30.00;36426.93
1738858318.783;91;30.00;36426.93
1738858318.833;91;30.00;36426.93
1738858318.883;99;30.00;40321.20
1738858318.933;99;30.00;40321.20
1738858318.984;99;30.00;40321.20
1738858319.034;107;30.00;43670.60
1738858319.084;110;30.00;45193.73
1738858319.134;110;30.00;45193.73
1738858319.184;107;30.00;43546.80
1738858319.234;90;30.00;35989.07
1738858319.284;90;30.00;35989.07
1738858319.334;90;30.00;35989.07
1738858319.384;110;30.00;44989.80
1738858319.434;110;30.00;44989.80
1738858319.484;110;30.00;44989.80
1738858319.534;99;30.00;40184.87
1738858319.584;101;30.00;41021.87
1738858319.634;101;30.00;41021.87
1738858319.685;91;30.00;36460.07
1738858319.735;93;30.00;37601.00
1738858319.785;93;30.00;37601.00
1738858319.835;93;30.00;37601.00
1738858319.885;103;30.00;41907.67
1738858319.935;103;30.00;41907.67
1738858319.985;103;30.00;41907.67
1738858320.035;110;30.00;44859.20
1738858320.085;99;30.00;40190.40
1738858320.135;99;30.00;40190.40
1738858320.185;87;30.00;34743.20
1738858320.235;100;30.00;40481.93
1738858320.285;100;30.00;40481.93
1738858320.335;100;30.00;40481.93
1738858320.385;110;30.00;44982.87
1738858320.436;97;30.00;39318.33
1738858320.485;97;30.00;39318.33
1738858320.535;97;30.00;39318.33
1738858320.585;100;30.00;40670.54
1738858320.635;100;30.00;40670.54
1738858320.686;100;30.00;40670.54
1738858320.735;108;30.00;44161.20
1738858320.786;108;30.00;44161.20
1738858320.836;108;30.00;44161.20
1738858320.886;90;30.00;36090.67
1738858320.937;95;30.00;38168.80
1738858320.986;95;30.00;38168.80
1738858321.037;95;30.00;38168.80
1738858321.087;96;30.00;38752.27
1738858321.137;96;30.00;38752.27
1738858321.187;96;30.00;38752.27
1738858321.287;112;30.00;45743.13
1738858321.337;112;30.00;45743.13
1738858321.386;90;30.00;36160.40
1738858321.437;96;30.00;38629.60
1738858321.487;96;30.00;38629.60
1738858321.537;96;30.00;38629.60
1738858321.587;93;30.00;37440.00
1738858321.637;93;30.00;37440.00
1738858321.687;93;30.00;37440.00
1738858321.737;96;30.00;38969.67
1738858321.787;91;30.00;36690.80
1738858321.836;91;30.00;36690.80
1738858321.888;101;30.00;41171.27
1738858321.938;93;30.00;37593.54
1738858321.988;93;30.00;37593.54
1738858322.038;93;30.00;37593.54
1738858322.087;90;30.00;36310.00
1738858322.138;90;30.00;36277.87
1738858322.188;90;30.00;36277.87
1738858322.238;90;30.00;36277.87
1738858322.288;103;30.00;42102.27
1738858322.338;103;30.00;42102.27
1738858322.388;103;30.00;42102.27
1738858322.438;99;30.00;40214.60
1738858322.488;93;30.00;37397.87
1738858322.539;93;30.00;37397.87
1738858322.588;99;30.00;40107.13
1738858322.638;98;30.00;39591.33
1738858322.689;98;30.00;39591.33
1738858322.738;98;30.00;39591.33
1738858322.789;107;30.00;43872.60
1738858322.839;97;30.00;39198.93
1738858322.888;97;30.00;39198.93
1738858322.939;97;30.00;39198.93
1738858460.085;200;15.68;37384.80
1738858460.136;200;15.68;37384.80
1738858460.185;200;14.84;35082.13
1738858460.236;200;16.25;38974.67
1738858460.285;200;16.25;38974.67
1738858460.336;200;16.25;38974.67
1738858460.386;200;18.01;43807.13
1738858460.436;200;18.01;43807.13
1738858460.485;200;16.97;40957.80
1738858460.537;200;15.76;37604.80
1738858460.587;200;15.76;37604.80
1738858460.637;200;15.76;37604.80
1738858460.687;200;17.17;41505.07
1738858460.737;200;17.17;41505.07
1738858460.786;200;17.17;41505.07
1738858460.836;200;17.88;43462.33
1738858460.887;200;16.64;40041.46
1738858460.937;200;16.64;40041.46
1738858460.987;200;16.03;38356.80
1738858461.037;200;16.03;38356.80
1738858461.087;200;16.03;38356.80
1738858461.137;200;17.82;43289.07
1738858461.187;200;14.96;35415.73
1738858461.237;200;14.96;35415.73
1738858461.287;200;15.45;36751.46
1738858461.337;200;17.37;42044.20
1738858461.387;200;17.37;42044.20
1738858461.437;200;18.28;44567.46
1738858461.488;200;18.28;44567.46
1738858461.537;200;18.28;44567.46
1738858461.587;200;17.37;42044.27
1738858461.637;200;17.37;42044.27
1738858461.688;200;17.37;42044.27
1738858461.737;200;17.37;42044.27
1738858461.787;200;15.98;38224.00
1738858461.837;200;15.98;38224.00
1738858461.887;200;15.98;38224.00
1738858461.938;200;18.49;45143.93
1738858461.987;200;15.49;36874.27
1738858462.038;200;15.49;36874.27
1738858462.088;200;15.49;36874.27
1738858462.137;200;18.73;45807.13
1738858462.187;200;16.36;39271.33
1738858462.238;200;16.36;39271.33
1738858462.288;200;15.21;36111.20
1738858462.338;200;17.27;41770.40
1738858462.388;200;17.53;42509.87
1738858462.438;200;17.53;42509.87
1738858462.488;200;16.68;40159.60
1738858462.539;200;16.80;40496.87
1738858462.589;200;16.80;40496.87
1738858462.638;200;16.80;40496.87
1738858462.688;200;18.49;45129.54
1738858462.739;200;17.38;42086.07
1738858462.788;200;17.38;42086.07
1738858462.838;200;17.38;42086.07
1738858462.889;200;16.68;40142.00
1738858462.938;200;17.41;42163.07
1738858462.989;200;17.41;42163.07
1738858463.040;200;15.05;35655.60
1738858463.090;200;15.05;35655.60
1738858463.140;200;15.05;35655.60
1738858463.190;200;16.43;39458.80
1738858463.240;200;16.43;39458.80
1738858463.290;200;16.43;39458.80
1738858463.340;200;15.01;35556.00
1738858463.390;200;15.01;35556.00
1738858463.441;200;15.01;35556.00
1738858463.491;200;17.20;41575.33
1738858463.540;200;16.31;39141.33
1738858463.590;200;16.31;39141.33
1738858463.640;200;18.20;44353.46
1738858463.690;200;18.19;44320.73
1738858463.740;200;18.19;44320.73
1738858463.791;200;15.62;37243.54
1738858463.840;200;17.90;43515.46
1738858463.891;200;17.90;43515.46
1738858463.941;200;17.90;43515.46
1738858463.991;200;17.99;43758.33
1738858464.041;200;17.26;41741.73
1738858464.091;200;17.26;41741.73
1738858464.141;200;17.26;41741.73
1738858464.191;200;16.52;39723.07
1738858464.242;200;16.52;39723.07
1738858464.291;200;16.52;39723.07
1738858464.343;200;15.77;37638.93
1738858464.393;200;18.73;45816.27
1738858464.443;200;18.73;45816.27
1738858464.493;200;16.43;39458.87
1738858473.815;200;16.12;38611.46
1738858473.866;200;16.12;38611.46
1738858473.915;200;18.77;45924.46
1738858473.966;200;18.77;45924.46
1738858474.017;200;18.77;45924.46
1738858474.067;200;17.92;43557.33
1738858474.117;200;15.34;36448.87
1738858474.167;200;15.34;36448.87
1738858474.217;200;17.57;42606.87
1738858474.267;200;17.57;42606.87
1738858474.317;200;17.57;42606.87
1738858474.368;200;14.91;35264.80
1738858474.417;200;15.34;36448.73
1738858474.467;200;15.34;36448.73
1738858474.517;200;17.08;41254.33
1738858474.567;200;17.08;41254.33
1738858474.617;200;17.08;41254.33
1738858474.667;200;17.35;41992.54
1738858474.718;200;17.35;41992.54
1738858474.775;200;17.35;41992.54
1738858474.823;200;17.49;42374.07
1738858474.873;200;16.49;39619.46
1738858474.923;200;16.49;39619.46
1738858474.973;200;16.49;39619.46
1738858475.023;200;15.74;37571.13
1738858475.073;200;15.74;37571.13
1738858475.123;200;15.74;37571.13
1738858475.173;200;16.01;38301.46
1738858475.223;200;15.66;37343.73
1738858475.273;200;15.66;37343.73
1738858475.323;200;16.16;38713.80
1738858475.373;200;14.95;35388.40
1738858475.423;200;14.95;35388.40
1738858475.473;200;14.95;35388.40
1738858475.523;200;17.75;43098.07
1738858475.574;200;16.82;40549.60
1738858475.624;200;16.82;40549.60
1738858475.674;200;16.82;40549.60
1738858475.724;200;15.00;35516.00
1738858475.774;200;15.00;35516.00
1738858475.824;200;15.00;35516.00
1738858475.874;200;14.67;34615.87
1738858475.925;200;14.67;34615.87
1738858475.974;200;14.67;34615.87
1738858476.024;200;18.12;44120.40
1738858476.075;200;16.67;40129.20
1738858476.125;200;16.67;40129.20
1738858476.175;200;16.67;40129.20
1738858476.226;200;15.32;36410.80
1738858476.275;200;15.32;36410.80
1738858476.325;200;15.32;36410.80
1738858476.376;200;17.39;42124.00
1738858476.425;200;17.39;42124.00
1738858476.476;200;17.39;42124.00
1738858476.526;200;15.52;36945.33
1738858476.576;200;15.52;36945.33
1738858476.626;200;15.52;36945.33
1738858476.676;200;15.94;38103.33
1738858476.726;200;15.94;38103.33
1738858476.776;200;15.94;38103.33
1738858476.826;200;18.27;44547.13
1738858476.876;200;16.28;39056.67
1738858476.927;200;16.28;39056.67
1738858476.976;200;16.28;39056.67
1738858477.026;200;15.26;36239.20
1738858477.076;200;15.26;36239.20
1738858477.126;200;15.26;36239.20
1738858477.176;200;15.64;37275.60
1738858477.227;200;15.64;37275.60
1738858477.277;200;15.64;37275.60
1738858477.327;200;18.08;44017.46
1738858477.376;200;16.98;40981.20
1738858477.426;200;16.98;40981.20
1738858477.477;200;16.98;40981.20
1738858477.527;200;14.86;35125.07
1738858477.577;200;17.23;41669.33
1738858477.627;200;17.23;41669.33
1738858477.677;200;17.23;41669.33
1738858477.726;200;16.03;38359.20
1738858477.777;200;16.03;38359.20
1738858477.827;200;16.03;38359.20
1738858477.877;200;17.52;42456.67
1738858477.927;200;17.52;42456.67
1738858477.977;200;17.52;42456.67
1738858487.965;200;15.95;38139.87
1738858488.014;200;15.95;38139.87
1738858488.065;200;15.95;38139.87
1738858488.114;200;16.99;41014.40
1738858488.164;200;17.63;42763.46
1738858488.214;200;17.63;42763.46
1738858488.266;200;17.18;41520.00
1738858488.317;200;15.86;37906.40
1738858488.366;200;15.86;37906.40
1738858488.417;200;18.07;43975.93
1738858488.467;200;16.55;39791.27
1738858488.517;200;16.55;39791.27
1738858488.567;200;16.55;39791.27
1738858488.616;200;17.00;41032.67
1738858488.668;200;16.67;40120.80
1738858488.718;200;16.67;40120.80
1738858488.768;200;16.96;40928.13
1738858488.818;200;16.51;39693.60
1738858488.869;200;16.51;39693.60
1738858488.919;200;16.77;40398.54
1738858488.968;200;16.33;39198.00
1738858489.019;200;16.33;39198.00
1738858489.068;200;16.60;39935.40
1738858489.119;200;16.14;38677.07
1738858489.169;200;16.14;38677.07
1738858489.220;200;15.24;36186.80
1738858489.269;200;16.02;38338.54
1738858489.320;200;16.02;38338.54
1738858489.370;200;15.99;38242.40
1738858489.419;200;15.99;38242.40
1738858489.470;200;15.99;38242.40
1738858489.520;200;17.99;43772.54
1738858489.570;200;16.51;39683.67
1738858489.621;200;16.51;39683.67
1738858489.671;200;16.51;39683.67
1738858489.720;200;16.70;40207.80
1738858489.771;200;16.70;40207.80
1738858489.821;200;16.70;40207.80
1738858489.871;200;17.68;42897.33
1738858489.921;200;17.84;43356.93
1738858489.971;200;17.84;43356.93
1738858490.021;200;17.50;42402.80
1738858490.071;200;17.16;41477.73
1738858490.121;200;17.16;41477.73
1738858490.171;200;17.02;41092.40
1738858490.220;200;18.17;44263.93
1738858490.271;200;18.17;44263.93
1738858490.321;200;15.44;36724.80
1738858490.371;200;17.99;43750.13
1738858490.421;200;17.99;43750.13
1738858490.471;200;17.99;43750.13
1738858490.521;200;18.13;44144.73
1738858490.571;200;18.13;44144.73
1738858490.621;200;18.13;44144.73
1738858490.678;200;17.82;43306.60
1738858490.722;200;14.86;35141.07
1738858490.772;200;14.86;35141.07
1738858490.822;200;14.86;35141.07
1738858490.872;200;17.01;41067.00
1738858490.922;200;15.32;36401.00
1738858490.972;200;15.32;36401.00
1738858491.022;200;16.00;38267.07
1738858491.071;200;17.95;43666.54
1738858491.122;200;17.43;42213.93
1738858491.173;200;17.43;42213.93
1738858491.222;200;16.58;39890.54
1738858491.273;200;16.94;40883.13
1738858491.323;200;16.94;40883.13
1738858491.374;200;16.49;39626.93
1738858491.523;200;15.75;37587.46
1738858491.574;200;15.09;35782.93
1738858491.624;200;15.09;35782.93
1738858491.674;200;15.09;35782.93
1738858491.724;200;15.42;36685.07
1738858491.774;200;15.42;36685.07
1738858491.825;200;15.42;36685.07
1738858491.874;200;17.92;43567.93
1738858646.362;350;15.24;36174.67
1738858646.412;350;15.87;37909.80
1738858646.462;350;15.87;37909.80
1738858646.513;350;15.87;37909.80
1738858646.562;350;16.17;38735.73
1738858646.612;350;16.17;38735.73
1738858646.661;350;16.17;38735.73
1738858646.713;350;17.40;42133.46
1738858646.762;350;17.40;42133.46
1738858646.813;350;17.40;42133.46
1738858646.863;350;18.02;43844.73
1738858646.913;350;18.02;43844.73
1738858646.963;350;18.02;43844.73
1738858647.013;350;18.15;44192.07
1738858647.064;350;18.15;44192.07
1738858647.114;350;18.15;44192.07
1738858647.165;350;17.92;43567.67
1738858647.214;350;17.92;43567.67
1738858647.264;350;17.92;43567.67
1738858647.314;350;17.26;41764.27
1738858647.365;350;17.39;42109.60
1738858647.415;350;17.39;42109.60
1738858647.465;350;17.75;43094.87
1738858647.515;350;18.12;44109.80
1738858647.564;350;18.12;44109.80
1738858647.616;350;18.12;44109.80
1738858647.666;350;15.12;35862.13
1738858647.716;350;15.12;35862.13
1738858647.767;350;15.12;35862.13
1738858647.817;350;15.65;37310.93
1738858647.867;350;15.64;37279.20
1738858647.917;350;15.64;37279.20
1738858647.968;350;18.69;45702.80
1738858648.018;350;18.69;45702.80
1738858648.067;350;18.69;45702.80
1738858648.117;350;16.91;40794.40
1738858648.168;350;17.32;41906.07
1738858648.217;350;17.32;41906.07
1738858648.267;350;17.32;41906.07
1738858648.318;350;16.34;39218.93
1738858648.369;350;16.34;39218.93
1738858648.418;350;16.34;39218.93
1738858648.469;350;17.18;41531.67
1738858648.519;350;17.06;41193.40
1738858648.569;350;17.06;41193.40
1738858648.619;350;17.06;41193.40
1738858648.668;350;16.62;39998.93
1738858648.719;350;16.62;39998.93
1738858648.770;350;16.62;39998.93
1738858648.819;350;14.83;35046.93
1738858648.870;350;17.04;41152.73
1738858648.920;350;17.04;41152.73
1738858648.970;350;16.78;40417.60
1738858649.020;350;16.78;40423.07
1738858649.070;350;16.78;40423.07
1738858649.121;350;16.78;40423.07
1738858649.170;350;18.49;45139.87
1738858649.220;350;18.49;45139.87
1738858649.271;350;18.49;45139.87
1738858649.320;350;16.47;39566.80
1738858649.371;350;16.64;40036.60
1738858649.420;350;16.64;40036.60
1738858649.471;350;16.36;39270.46
1738858649.520;350;15.24;36195.60
1738858649.570;350;15.24;36195.60
1738858649.621;350;15.24;36195.60
1738858649.671;350;18.05;43934.20
1738858649.720;350;18.12;44116.54
1738858649.770;350;18.12;44116.54
1738858649.821;350;18.12;44116.54
1738858649.871;350;16.05;38411.93
1738858649.920;350;16.85;40616.27
1738858649.971;350;16.85;40616.27
1738858650.021;350;16.85;40616.27
1738858650.070;350;16.52;39707.33
1738858650.120;350;16.52;39707.33
1738858650.171;350;16.52;39707.33
1738858650.221;350;17.22;41635.07
1738858650.271;350;17.22;41635.07
1738858650.321;350;17.22;41635.07
1738858650.372;350;16.76;40370.67
1738858650.421;350;16.76;40370.67
1738858650.471;350;16.76;40370.67
1738858650.521;350;15.38;36580.46
1738858650.571;350;15.92;38057.07
1738858650.621;350;15.92;38057.07
1738858650.671;350;15.92;38057.07
1738858660.273;350;16.32;39153.46
1738858660.323;350;16.32;39153.46
1738858660.373;350;15.71;37488.00
1738858660.424;350;15.48;36855.67
1738858660.474;350;15.48;36855.67
1738858660.527;350;15.48;36855.67
1738858660.574;350;17.70;42952.80
1738858660.624;350;17.50;42401.46
1738858660.675;350;17.50;42401.46
1738858660.725;350;17.50;42401.46
1738858660.775;350;16.39;39351.73
1738858660.825;350;16.39;39351.73
1738858660.875;350;16.64;40045.33
1738858660.924;350;15.92;38068.80
1738858660.975;350;15.92;38068.80
1738858661.024;350;15.92;38068.80
1738858661.074;350;17.95;43642.33
1738858661.125;350;17.95;43642.33
1738858661.175;350;17.95;43642.33
1738858661.226;350;17.10;41299.67
1738858661.276;350;17.10;41299.67
1738858661.326;350;16.52;39702.93
1738858661.377;350;15.46;36779.07
1738858661.427;350;15.46;36779.07
1738858661.477;350;16.45;39522.54
1738858661.527;350;17.18;41520.40
1738858661.577;350;17.18;41520.40
1738858661.627;350;16.78;40432.67
1738858661.677;350;16.87;40686.73
1738858661.727;350;16.87;40686.73
1738858661.777;350;16.05;38427.67
1738858661.827;350;16.82;40526.07
1738858661.877;350;16.82;40526.07
1738858661.927;350;16.82;40526.07
1738858661.977;350;18.12;44130.00
1738858662.027;350;18.12;44130.00
1738858662.077;350;18.12;44130.00
1738858662.127;350;16.52;39712.93
1738858662.178;350;16.81;40510.46
1738858662.228;350;16.81;40510.46
1738858662.278;350;17.20;41581.80
1738858662.329;350;17.26;41760.13
1738858662.379;350;17.26;41760.13
1738858662.428;350;17.26;41760.13
1738858662.478;350;16.72;40273.46
1738858662.528;350;16.72;40273.46
1738858662.578;350;15.72;37519.93
1738858662.628;350;15.39;36597.60
1738858662.678;350;15.39;36597.60
1738858662.729;350;15.39;36597.60
1738858662.779;350;18.62;45506.20
1738858662.828;350;18.62;45506.20
1738858662.878;350;18.62;45506.20
1738858662.929;350;18.37;44816.73
1738858662.980;350;18.37;44816.73
1738858663.030;350;17.94;43624.54
1738858663.080;350;15.96;38166.27
1738858663.130;350;15.96;38166.27
1738858663.179;350;15.94;38112.93
1738858663.230;350;16.83;40566.73
1738858663.279;350;16.83;40566.73
1738858663.330;350;16.51;39689.33
1738858663.380;350;17.14;41429.20
1738858663.430;350;17.14;41429.20
1738858663.481;350;16.51;39691.33
1738858663.531;350;16.02;38341.67
1738858663.581;350;16.02;38341.67
1738858663.631;350;15.14;35919.73
1738858672.973;350;15.86;37895.20
1738858673.024;350;15.86;37895.20
1738858673.073;350;15.16;35977.07
1738858673.124;350;16.49;39616.67
1738858673.173;350;16.49;39616.67
1738858673.224;350;15.96;38167.60
1738858673.274;350;18.41;44916.40
1738858673.324;350;18.41;44916.40
1738858673.373;350;17.53;42509.13
1738858673.424;350;16.97;40953.54
1738858673.474;350;16.97;40953.54
1738858673.525;350;16.97;40953.54
1738858673.574;350;15.86;37897.87
1738858673.625;350;15.86;37897.87
1738858673.674;350;17.38;42080.00
1738858673.725;350;17.44;42248.93
1738858673.775;350;17.44;42248.93
1738858673.824;350;17.30;41850.00
1738858673.875;350;18.61;45480.07
1738858673.925;350;18.61;45480.07
1738858673.975;350;17.05;41186.67
1738858674.025;350;16.60;39931.73
1738858674.075;350;16.60;39931.73
1738858674.125;350;16.60;39931.73
1738858674.175;350;18.30;44619.40
1738858674.225;350;16.66;40092.67
1738858674.275;350;16.66;40092.67
1738858674.325;350;16.66;40092.67
1738858674.375;350;17.18;41543.80
1738858674.425;350;17.18;41543.80
1738858674.475;350;17.18;41543.80
1738858674.675;350;16.79;40451.87
1738858674.725;350;16.79;40451.87
1738858674.776;350;16.39;39367.60
1738858674.825;350;17.90;43509.27
1738858674.875;350;17.90;43509.27
1738858674.925;350;17.90;43509.27
1738858674.975;350;15.01;35553.60
1738858675.025;350;15.01;35553.60
1738858675.075;350;15.01;35553.60
1738858675.125;350;15.86;37881.73
1738858675.176;350;17.56;42571.80
1738858675.225;350;17.56;42571.80
1738858675.275;350;17.75;43109.13
1738858675.326;350;16.11;38592.60
1738858675.375;350;16.11;38592.60
1738858675.425;350;15.16;35974.40
1738858675.475;350;16.15;38688.93
1738858675.526;350;16.15;38688.93
1738858675.576;350;18.05;43922.87
1738858675.626;350;15.21;36102.00
1738858675.676;350;15.21;36102.00
1738858675.727;350;15.16;35952.93
1738858675.776;350;16.26;38985.93
1738858675.827;350;16.26;38985.93
1738858675.877;350;16.26;38985.93
1738858675.926;350;16.96;40915.00
1738858675.977;350;16.96;40915.00
1738858676.026;350;16.96;40915.00
1738858676.076;350;16.81;40516.80
1738858676.128;350;16.81;40516.80
1738858676.177;350;16.81;40516.80
1738858676.227;350;16.84;40584.20
1738858676.278;350;17.88;43461.54
1738858676.327;350;17.88;43461.54
1738858676.377;350;15.71;37477.73
1738858676.427;350;14.85;35119.46
1738858676.477;350;14.85;35119.46
1738858676.527;350;14.85;35119.46
1738858676.577;350;14.99;35484.20
1738858676.627;350;14.99;35484.20
1738858676.677;350;15.26;36242.07
1738858676.728;350;14.93;35323.87
1738858676.777;350;14.93;35323.87
1738858676.828;350;14.93;35323.87
1738858813.807;91;20.00;36505.07
1738858813.857;88;20.00;35405.60
1738858813.907;88;20.00;35405.60
1738858813.957;92;20.00;37039.67
1738858814.007;96;20.00;38612.67
1738858814.057;96;20.00;38612.67
1738858814.107;95;20.00;38348.00
1738858814.158;106;20.00;43084.80
1738858814.207;106;20.00;43084.80
1738858814.257;97;20.00;39219.67
1738858814.308;107;20.00;43513.33
1738858814.357;107;20.00;43513.33
1738858814.408;108;20.00;44297.80
1738858814.458;105;20.00;42878.60
1738858814.508;105;20.00;42878.60
1738858814.558;105;20.00;42878.60
1738858814.608;89;20.00;35814.54
1738858814.658;89;20.00;35814.54
1738858814.708;89;20.00;35814.54
1738858814.758;89;20.00;35814.54
1738858814.808;98;20.00;39660.54
1738858814.858;98;20.00;39660.54
1738858814.908;98;20.00;39660.54
1738858814.958;96;20.00;38649.40
1738858815.009;96;20.00;38649.40
1738858815.058;96;20.00;38649.40
1738858815.109;93;20.00;37425.54
1738858815.160;97;20.00;39197.33
1738858815.209;97;20.00;39197.33
1738858815.260;100;20.00;40424.54
1738858815.309;91;20.00;36418.54
1738858815.359;91;20.00;36418.54
1738858815.409;91;20.00;36418.54
1738858815.459;97;20.00;39444.46
1738858815.509;97;20.00;39444.46
1738858815.560;97;20.00;39444.46
1738858815.610;98;20.00;39642.93
1738858815.660;98;20.00;39642.93
1738858815.710;98;20.00;39642.93
1738858815.760;111;20.00;45392.73
1738858815.809;111;20.00;45311.27
1738858815.860;111;20.00;45311.27
1738858815.909;96;20.00;38824.40
1738858815.961;95;20.00;38433.73
1738858816.010;95;20.00;38433.73
1738858816.060;102;20.00;41702.93
1738858816.110;104;20.00;42515.60
1738858816.161;104;20.00;42515.60
1738858816.211;91;20.00;36597.87
1738858816.261;94;20.00;37966.40
1738858816.310;94;20.00;37966.40
1738858816.361;94;20.00;37966.40
1738858816.411;108;20.00;43964.07
1738858816.461;108;20.00;43964.07
1738858816.511;108;20.00;43964.07
1738858816.561;93;20.00;37492.93
1738858816.611;93;20.00;37492.93
1738858816.661;93;20.00;37492.93
1738858816.710;100;20.00;40483.60
1738858816.761;100;20.00;40483.60
1738858816.811;100;20.00;40483.60
1738858816.861;97;20.00;39324.67
1738858816.911;97;20.00;39324.67
1738858816.961;97;20.00;39324.67
1738858817.011;95;20.00;38196.13
1738858817.061;94;20.00;37729.07
1738858817.111;94;20.00;37729.07
1738858817.161;94;20.00;37729.07
1738858817.211;104;20.00;42279.80
1738858817.261;104;20.00;42279.80
1738858817.312;104;20.00;42279.80
1738858817.362;103;20.00;41887.07
1738858817.412;99;20.00;40164.67
1738858817.462;99;20.00;40164.67
1738858817.512;99;20.00;40126.93
1738858817.562;98;20.00;39507.33
1738858817.612;98;20.00;39507.33
1738858817.661;102;20.00;41483.67
1738858817.712;102;20.00;41483.67
1738858817.762;102;20.00;41483.67
1738858817.812;102;20.00;41316.87
1738858817.863;102;20.00;41316.87
1738858817.913;102;20.00;41316.87
1738858817.963;102;20.00;41441.73
1738858827.561;92;20.00;37140.27
1738858827.611;90;20.00;36185.07
1738858827.661;90;20.00;36185.07
1738858827.711;88;20.00;35207.20
1738858827.762;88;20.00;35204.27
1738858827.812;88;20.00;35204.27
1738858827.862;88;20.00;35204.27
1738858827.911;108;20.00;43998.20
1738858827.962;108;20.00;43998.20
1738858828.012;98;20.00;39541.46
1738858828.062;88;20.00;35051.20
1738858828.113;88;20.00;35051.20
1738858828.163;88;20.00;35051.20
1738858828.213;101;20.00;41056.33
1738858828.263;101;20.00;41056.33
1738858828.313;101;20.00;41056.33
1738858828.363;99;20.00;40197.87
1738858828.413;99;20.00;40197.87
1738858828.463;99;20.00;40197.87
1738858828.513;92;20.00;36812.00
1738858828.563;92;20.00;37210.67
1738858828.613;92;20.00;37210.67
1738858828.663;100;20.00;40494.33
1738858828.713;102;20.00;41334.27
1738858828.763;102;20.00;41334.27
1738858828.813;104;20.00;42345.46
1738858828.863;90;20.00;36160.27
1738858828.913;90;20.00;36160.27
1738858828.963;95;20.00;38230.07
1738858829.013;94;20.00;37796.54
1738858829.063;94;20.00;37796.54
1738858829.113;97;20.00;39206.00
1738858829.165;95;20.00;38525.87
1738858829.214;95;20.00;38525.87
1738858829.265;95;20.00;38525.87
1738858829.314;98;20.00;39913.00
1738858829.364;98;20.00;39913.00
1738858829.414;98;20.00;39913.00
1738858829.464;98;20.00;39529.67
1738858829.514;98;20.00;39529.67
1738858829.564;98;20.00;39529.67
1738858829.615;105;20.00;43022.00
1738858829.665;102;20.00;41595.13
1738858829.714;102;20.00;41595.13
1738858829.764;95;20.00;38492.93
1738858829.814;106;20.00;43179.13
1738858829.864;106;20.00;43179.13
1738858829.915;92;20.00;37167.46
1738858829.965;92;20.00;37115.46
1738858830.014;92;20.00;37115.46
1738858830.065;98;20.00;39750.20
1738858830.116;88;20.00;35344.00
1738858830.166;88;20.00;35344.00
1738858830.215;88;20.00;35344.00
1738858830.266;98;20.00;39747.73
1738858830.315;98;20.00;39747.73
1738858830.366;98;20.00;39747.73
1738858830.416;112;20.00;45825.33
1738858830.466;107;20.00;43909.46
1738858830.516;107;20.00;43909.46
1738858830.566;105;20.00;42843.60
1738858830.615;102;20.00;41516.80
1738858830.666;102;20.00;41516.80
1738858830.715;105;20.00;42892.07
1738858830.765;102;20.00;41272.60
1738858830.816;102;20.00;41272.60
1738858830.866;102;20.00;41272.60
1738858830.915;86;20.00;34478.00
1738858830.965;86;20.00;34478.00
1738858831.018;86;20.00;34478.00
1738858831.068;99;20.00;40360.00
1738858831.117;99;20.00;40360.00
1738858831.167;95;20.00;38133.46
1738858831.217;91;20.00;36779.87
1738858831.267;91;20.00;36779.87
1738858831.317;91;20.00;36779.87
1738858831.368;108;20.00;44068.73
1738858840.852;93;20.00;37593.87
1738858840.902;90;20.00;36003.33
1738858840.952;90;20.00;36003.33
1738858841.002;106;20.00;43289.80
1738858841.052;92;20.00;36837.46
1738858841.103;92;20.00;36837.46
1738858841.153;99;20.00;40049.20
1738858841.203;99;20.00;39971.07
1738858841.253;99;20.00;39971.07
1738858841.303;99;20.00;39971.07
1738858841.353;106;20.00;43094.07
1738858841.403;109;20.00;44579.93
1738858841.454;109;20.00;44579.93
1738858841.505;109;20.00;44579.93
1738858841.554;105;20.00;42766.33
1738858841.604;105;20.00;42766.33
1738858841.655;105;20.00;42766.33
1738858841.704;98;20.00;39561.33
1738858841.755;98;20.00;39561.33
1738858841.805;98;20.00;39561.33
1738858841.854;107;20.00;43495.80
1738858841.905;107;20.00;43495.80
1738858841.954;100;20.00;40717.60
1738858842.004;101;20.00;40840.54
1738858842.054;101;20.00;40840.54
1738858842.105;101;20.00;40840.54
1738858842.155;93;20.00;37464.00
1738858842.205;93;20.00;37464.00
1738858842.254;93;20.00;37464.00
1738858842.306;94;20.00;38103.20
1738858842.356;93;20.00;37344.27
1738858842.405;93;20.00;37344.27
1738858842.455;93;20.00;37344.27
1738858842.506;106;20.00;43487.93
1738858842.556;112;20.00;45965.67
1738858842.606;112;20.00;45965.67
1738858842.655;99;20.00;40325.13
1738858842.706;92;20.00;36980.00
1738858842.755;92;20.00;36980.00
1738858842.806;92;20.00;36980.00
1738858842.856;99;20.00;40106.20
1738858842.906;99;20.00;40106.20
1738858842.956;99;20.00;40106.20
1738858843.006;104;20.00;42316.13
1738858843.056;97;20.00;39459.54
1738858843.106;97;20.00;39459.54
1738858843.156;97;20.00;39459.54
1738858843.206;105;20.00;42967.87
1738858843.257;109;20.00;44628.20
1738858843.306;109;20.00;44628.20
1738858843.356;101;20.00;40844.00
1738858843.406;99;20.00;40085.46
1738858843.456;99;20.00;40085.46
1738858843.506;102;20.00;41411.33
1738858843.556;106;20.00;43095.20
1738858843.607;106;20.00;43095.20
1738858843.656;106;20.00;43095.20
1738858843.710;89;20.00;35779.33
1738858843.757;102;20.00;41373.07
1738858843.808;102;20.00;41373.07
1738858843.857;99;20.00;40037.87
1738858843.908;100;20.00;40416.13
1738858843.958;100;20.00;40416.13
1738858844.007;100;20.00;40416.13
1738858844.057;101;20.00;41202.27
1738858844.107;108;20.00;44129.80
1738858844.159;108;20.00;44129.80
1738858844.209;108;20.00;44129.80
1738858844.259;104;20.00;42569.54
1738858844.308;104;20.00;42569.54
1738858844.360;106;20.00;43348.73
1738858844.409;95;20.00;38206.40
1738858844.460;95;20.00;38206.40
1738858844.509;93;20.00;37399.00
1738858844.559;104;20.00;42222.67
1738858844.609;104;20.00;42222.67
1738858844.660;104;20.00;42222.67
1738858844.710;98;20.00;39674.13
1738858844.760;109;20.00;44696.54
1738858844.809;109;20.00;44696.54
1738858844.859;99;20.00;39995.00
1738858844.909;92;20.00;37084.13
1738858844.959;100;20.00;40678.87
1738858845.010;100;20.00;40678.87
1738858845.061;99;20.00;40057.27
1738858981.864;93;40.00;37272.00
1738858981.914;88;40.00;35200.80
1738858981.964;88;40.00;35200.80
1738858982.013;102;40.00;41553.27
1738858982.064;102;40.00;41314.54
1738858982.114;102;40.00;41314.54
1738858982.163;91;40.00;36658.27
1738858982.213;100;40.00;40555.87
1738858982.265;100;40.00;40555.87
1738858982.315;89;40.00;35741.87
1738858982.364;92;40.00;37166.40
1738858982.415;92;40.00;37166.40
1738858982.464;94;40.00;38021.07
1738858982.514;90;40.00;36256.80
1738858982.565;90;40.00;36256.80
1738858982.615;102;40.00;41549.40
1738858982.665;102;40.00;41549.40
1738858982.715;102;40.00;41549.40
1738858982.765;89;40.00;35516.40
1738858982.816;89;40.00;35516.40
1738858982.866;89;40.00;35516.40
1738858982.915;88;40.00;35406.00
1738858982.967;104;40.00;42508.73
1738858983.016;104;40.00;42508.73
1738858983.067;91;40.00;36681.60
1738858983.117;92;40.00;37000.67
1738858983.167;92;40.00;37000.67
1738858983.217;92;40.00;37000.67
1738858983.267;107;40.00;43498.54
1738858983.317;107;40.00;43498.54
1738858983.367;103;40.00;41917.73
1738858983.417;95;40.00;38153.87
1738858983.467;95;40.00;38153.87
1738858983.517;92;40.00;36811.67
1738858983.567;92;40.00;36811.67
1738858983.617;92;40.00;36811.67
1738858983.667;95;40.00;38479.87
1738858983.717;95;40.00;38479.87
1738858983.767;94;40.00;37741.07
1738858983.818;89;40.00;35624.00
1738858983.867;89;40.00;35624.00
1738858983.918;89;40.00;35624.00
1738858983.968;111;40.00;45347.27
1738858984.018;111;40.00;45347.27
1738858984.068;102;40.00;41703.67
1738858984.118;105;40.00;42642.46
1738858984.167;105;40.00;42642.46
1738858984.217;105;40.00;42642.46
1738858984.269;89;40.00;35711.20
1738858984.318;89;40.00;35711.20
1738858984.369;89;40.00;35711.20
1738858984.420;99;40.00;40020.67
1738858984.469;89;40.00;35808.13
1738858984.519;89;40.00;35808.13
1738858984.569;90;40.00;36022.54
1738858984.620;108;40.00;44031.40
1738858984.670;101;40.00;41177.00
1738858984.720;101;40.00;41177.00
1738858984.771;99;40.00;40270.54
1738858984.820;99;40.00;40270.54
1738858984.871;99;40.00;40270.54
1738858984.920;106;40.00;43481.80
1738858984.971;105;40.00;42803.67
1738858985.021;105;40.00;42803.67
1738858985.070;103;40.00;42002.46
1738858985.121;97;40.00;39236.27
1738858985.170;97;40.00;39236.27
1738858985.221;97;40.00;39236.27
1738858985.271;96;40.00;38885.73
1738858985.321;96;40.00;38885.73
1738858985.371;96;40.00;38885.73
1738858985.421;97;40.00;39182.93
1738858985.471;110;40.00;45277.46
1738858985.521;110;40.00;45277.46
1738858985.571;102;40.00;41373.13
1738858985.621;97;40.00;39410.40
1738858985.671;101;40.00;40910.87
1738858985.721;101;40.00;40910.87
1738858985.771;106;40.00;43326.33
1738858985.822;111;40.00;45295.00
1738858985.871;111;40.00;45295.00
1738858985.921;111;40.00;45728.00
1738858995.024;90;40.00;36172.20
1738858995.073;90;40.00;36172.20
1738858995.123;90;40.00;36172.20
1738858995.175;111;40.00;45458.20
1738858995.225;111;40.00;45458.20
1738858995.274;105;40.00;42668.54
1738858995.324;98;40.00;39810.00
1738858995.375;98;40.00;39810.00
1738858995.425;101;40.00;41142.20
1738858995.474;101;40.00;41142.20
1738858995.524;101;40.00;41142.20
1738858995.575;95;40.00;38164.46
1738858995.625;95;40.00;38164.46
1738858995.675;100;40.00;40514.54
1738858995.727;88;40.00;35159.07
1738858995.775;88;40.00;35159.07
1738858995.825;88;40.00;35159.07
1738858995.875;88;40.00;35356.00
1738858995.925;88;40.00;35356.00
1738858995.975;88;40.00;35356.00
1738858996.025;105;40.00;42666.93
1738858996.075;90;40.00;36062.60
1738858996.125;90;40.00;36062.60
1738858996.174;94;40.00;37985.13
1738858996.225;113;40.00;46177.27
1738858996.275;113;40.00;46177.27
1738858996.325;113;40.00;46177.27
1738858996.375;89;40.00;35845.07
1738858996.425;88;40.00;35187.73
1738858996.475;88;40.00;35187.73
1738858996.525;90;40.00;36084.27
1738858996.575;90;40.00;36106.54
1738858996.625;90;40.00;36106.54
1738858996.675;87;40.00;34948.80
1738858996.725;87;40.00;34948.80
1738858996.775;87;40.00;34948.80
1738858996.826;114;40.00;46669.07
1738858996.875;98;40.00;39592.60
1738858996.926;98;40.00;39592.60
1738858996.975;89;40.00;35873.20
1738858997.025;99;40.00;40068.73
1738858997.075;99;40.00;40068.73
1738858997.126;93;40.00;37616.80
1738858997.175;89;40.00;35814.13
1738858997.226;89;40.00;35814.13
1738858997.276;94;40.00;37824.00
1738858997.326;94;40.00;37824.00
1738858997.376;87;40.00;34638.13
1738858997.425;111;40.00;45632.87
1738858997.476;111;40.00;45632.87
1738858997.526;88;40.00;35332.93
1738858997.576;112;40.00;45997.33
1738858997.626;112;40.00;45997.33
1738858997.675;109;40.00;44732.07
1738858997.726;87;40.00;34974.93
1738858997.776;87;40.00;34974.93
1738858997.826;93;40.00;37259.33
1738858997.876;95;40.00;38326.54
1738858997.926;95;40.00;38326.54
1738858997.976;95;40.00;38326.54
1738858998.027;87;40.00;34582.13
1738858998.076;87;40.00;34582.13
1738858998.126;87;40.00;34582.13
1738858998.176;103;40.00;42097.07
1738858998.226;103;40.00;41966.27
1738858998.276;103;40.00;41966.27
1738858998.326;103;40.00;41966.27
1738858998.377;92;40.00;36891.60
1738858998.426;92;40.00;36891.60
1738858998.477;92;40.00;36891.60
1738858998.528;106;40.00;43116.40
1738858998.578;112;40.00;45993.80
1738858998.628;112;40.00;45993.80
1738858998.678;97;40.00;39241.00
1738858998.728;88;40.00;35376.54
1738858998.778;88;40.00;35376.54
1738858998.827;99;40.00;40156.20
1738858998.878;106;40.00;43066.73
1738858998.928;106;40.00;43066.73
1738858998.978;87;40.00;34774.54
1738858999.028;93;40.00;37292.80
1738859008.757;93;40.00;37587.07
1738859008.807;93;40.00;37587.07
1738859008.857;93;40.00;37587.07
1738859008.907;94;40.00;37757.60
1738859008.957;94;40.00;37747.46
1738859009.006;94;40.00;37747.46
1738859009.057;98;40.00;39748.07
1738859009.107;96;40.00;39013.33
1738859009.157;96;40.00;39013.33
1738859009.207;95;40.00;38450.40
1738859009.257;96;40.00;39003.27
1738859009.307;96;40.00;39003.27
1738859009.357;96;40.00;39003.27
1738859009.407;98;40.00;39666.54
1738859009.458;98;40.00;39666.54
1738859009.507;98;40.00;39666.54
1738859009.557;98;40.00;39845.27
1738859009.608;109;40.00;44543.54
1738859009.658;109;40.00;44543.54
1738859009.708;88;40.00;35224.40
1738859009.758;88;40.00;35372.40
1738859009.808;88;40.00;35372.40
1738859009.859;88;40.00;35372.40
1738859009.909;103;40.00;41803.20
1738859009.960;103;40.00;41803.20
1738859010.010;103;40.00;41803.20
1738859010.059;100;40.00;40374.20
1738859010.109;87;40.00;34803.46
1738859010.159;87;40.00;34803.46
1738859010.209;88;40.00;35142.67
1738859010.259;89;40.00;35850.13
1738859010.309;89;40.00;35850.13
1738859010.360;89;40.00;35850.13
1738859010.409;87;40.00;34842.93
1738859010.460;87;40.00;34842.93
1738859010.510;90;40.00;36103.07
1738859010.561;88;40.00;35312.00
1738859010.611;88;40.00;35312.00
1738859010.661;88;40.00;35312.00
1738859010.711;104;40.00;42490.67
1738859010.761;104;40.00;42490.67
1738859010.811;104;40.00;42490.67
1738859010.861;88;40.00;35439.73
1738859010.911;88;40.00;35439.73
1738859010.962;88;40.00;35439.73
1738859011.012;109;40.00;44732.87
1738859011.063;109;40.00;44732.87
1738859011.112;109;40.00;44732.87
1738859011.162;93;40.00;37300.54
1738859011.212;93;40.00;37300.54
1738859011.262;93;40.00;37300.54
1738859011.313;109;40.00;44747.80
1738859011.364;109;40.00;44747.80
1738859011.414;109;40.00;44747.80
1738859011.464;112;40.00;45975.20
1738859011.514;111;40.00;45498.80
1738859011.564;111;40.00;45498.80
1738859011.614;111;40.00;45498.80
1738859011.665;110;40.00;44908.67
1738859011.714;106;40.00;43469.00
1738859011.764;106;40.00;43469.00
1738859011.815;104;40.00;42416.60
1738859011.865;88;40.00;35135.13
1738859011.915;88;40.00;35135.13
1738859011.965;88;40.00;35135.13
1738859012.015;106;40.00;43472.60
1738859012.065;106;40.00;43472.60
1738859012.114;106;40.00;43472.60
1738859012.165;88;40.00;35394.13
1738859012.215;88;40.00;35394.13
1738859012.265;88;40.00;35394.13
1738859012.315;113;40.00;46305.07
1738859012.365;113;40.00;46305.07
1738859012.414;113;40.00;46305.07
1738859012.465;106;40.00;43096.07
1738859012.515;106;40.00;43096.07
1738859012.565;106;40.00;43096.07
1738859012.615;114;40.00;46876.54
1738859012.665;114;40.00;46876.54
1738859012.715;114;40.00;46876.54
1738859012.765;107;40.00;43693.93
1738859012.815;88;40.00;35298.13
1738859012.866;88;40.00;35298.13
1738859012.915;88;40.00;35298.13
1738859012.972;92;40.00;37142.60
1738859320.506;50;15.94;38102.60
1738859320.555;50;15.94;38102.60
1738859320.605;50;14.78;34918.13
1738859320.656;50;16.32;39166.67
1738859320.707;50;16.32;39166.67
1738859320.757;50;15.19;36040.80
1738859320.807;50;17.48;42353.13
1738859320.857;50;15.81;37756.07
1738859320.907;50;15.81;37756.07
1738859320.957;50;15.67;37358.93
1738859321.157;50;15.88;37961.87
1738859321.207;50;15.05;35666.93
1738859321.259;50;15.05;35666.93
1738859321.308;50;15.05;35666.93
1738859321.358;50;17.38;42084.00
1738859321.408;50;16.13;38630.33
1738859321.458;50;16.13;38630.33
1738859321.509;50;16.13;38630.33
1738859321.559;50;18.44;44991.67
1738859321.609;50;18.44;44991.67
1738859321.659;50;18.44;44991.67
1738859321.708;50;16.74;40321.20
1738859321.759;50;16.62;39984.27
1738859321.809;50;16.62;39984.27
1738859321.858;50;16.30;39096.46
1738859321.909;50;16.58;39888.40
1738859321.959;50;16.58;39888.40
1738859322.010;50;16.58;39888.40
1738859322.059;50;17.21;41625.54
1738859322.109;50;16.99;41006.54
1738859322.160;50;16.99;41006.54
1738859322.209;50;16.11;38592.27
1738859322.260;50;15.15;35926.00
1738859322.311;50;15.15;35926.00
1738859322.361;50;15.15;35926.00
1738859322.410;50;15.02;35581.87
1738859322.460;50;17.73;43046.33
1738859322.510;50;17.73;43046.33
1738859322.560;50;15.90;38005.60
1738859322.610;50;16.08;38508.93
1738859322.660;50;15.98;38212.46
1738859322.711;50;15.98;38212.46
1738859322.760;50;15.44;36748.00
1738859322.811;50;15.89;37967.20
1738859322.860;50;15.89;37967.20
1738859322.910;50;15.89;37967.20
1738859322.961;50;17.47;42342.20
1738859323.011;50;16.42;39436.93
1738859323.061;50;16.42;39436.93
1738859323.111;50;16.42;39436.93
1738859323.161;50;16.44;39492.13
1738859323.211;50;16.44;39492.13
1738859323.262;50;16.44;39492.13
1738859323.312;50;18.51;45202.54
1738859323.362;50;15.82;37775.46
1738859323.412;50;15.82;37775.46
1738859323.462;50;17.17;41512.67
1738859323.513;50;15.12;35860.27
1738859323.563;50;15.12;35860.27
1738859323.614;50;15.12;35860.27
1738859323.664;50;15.61;37198.46
1738859323.714;50;15.61;37198.46
1738859323.764;50;15.61;37198.46
1738859323.813;50;16.86;40646.33
1738859323.863;50;16.86;40646.33
1738859323.914;50;16.86;40646.33
1738859323.964;50;18.73;45809.20
1738859324.014;50;18.73;45809.20
1738859324.063;50;18.73;45809.20
1738859324.113;50;18.24;44447.13
1738859324.163;50;18.06;43959.33
1738859324.213;50;18.06;43959.33
1738859324.264;50;16.10;38560.40
1738859324.313;50;14.63;34500.27
1738859324.363;50;14.63;34500.27
1738859324.414;50;14.63;34500.27
1738859324.463;50;17.27;41791.67
1738859324.514;50;17.27;41791.67
1738859324.564;50;17.27;41791.67
1738859324.614;50;17.37;42058.46
1738859324.664;50;15.54;37009.13
1738859324.713;50;15.54;37009.13
1738859324.764;50;15.54;37009.13
1738859324.814;50;16.69;40190.33
1738859324.863;50;17.62;42736.73
1738859324.914;50;17.62;42736.73
1738859324.963;50;16.16;38730.87
1738859335.001;50;15.64;37276.67
1738859335.051;50;15.02;35591.73
1738859335.102;50;15.02;35591.73
1738859335.152;50;15.44;36728.27
1738859335.201;50;15.73;37526.13
1738859335.251;50;15.73;37526.13
1738859335.301;50;15.73;37526.13
1738859335.351;50;16.28;39043.93
1738859335.402;50;17.17;41501.00
1738859335.451;50;17.17;41501.00
1738859335.501;50;17.17;41501.00
1738859335.551;50;17.38;42081.54
1738859335.601;50;17.38;42081.54
1738859335.653;50;17.38;42081.54
1738859335.703;50;16.02;38332.27
1738859335.753;50;17.87;43446.60
1738859335.804;50;17.87;43446.60
1738859335.853;50;17.11;41343.80
1738859335.903;50;16.74;40309.60
1738859335.953;50;16.74;40309.60
1738859336.003;50;16.74;40309.60
1738859336.054;50;17.84;43337.80
1738859336.104;50;17.84;43337.80
1738859336.154;50;17.84;43337.80
1738859336.204;50;18.07;43975.27
1738859336.254;50;15.95;38148.80
1738859336.304;50;15.95;38148.80
1738859336.354;50;14.98;35460.54
1738859336.405;50;15.85;37854.54
1738859336.454;50;15.85;37854.54
1738859336.504;50;16.13;38641.60
1738859336.554;50;17.29;41824.73
1738859336.605;50;17.29;41824.73
1738859336.654;50;17.29;41824.73
1738859336.704;50;15.54;37022.46
1738859336.755;50;15.80;37722.46
1738859336.810;50;15.80;37722.46
1738859336.858;50;15.66;37341.33
1738859336.909;50;17.03;41129.27
1738859336.960;50;15.28;36298.67
1738859337.010;50;15.28;36298.67
1738859337.060;50;14.70;34686.13
1738859337.110;50;15.84;37838.54
1738859337.160;50;15.84;37838.54
1738859337.210;50;15.17;35994.67
1738859337.260;50;17.54;42521.13
1738859337.310;50;17.54;42521.13
1738859337.360;50;17.54;42521.13
1738859337.410;50;15.03;35613.07
1738859337.461;50;15.49;36880.46
1738859337.510;50;15.49;36880.46
1738859337.560;50;16.56;39819.13
1738859337.610;50;17.03;41119.60
1738859337.660;50;17.03;41119.60
1738859337.710;50;17.57;42593.33
1738859337.760;50;14.80;34970.80
1738859337.811;50;14.80;34970.80
1738859337.860;50;14.80;34970.80
1738859337.911;50;16.62;39993.27
1738859337.961;50;17.91;43543.80
1738859338.011;50;17.91;43543.80
1738859338.062;50;14.82;35028.00
1738859338.111;50;16.02;38342.33
1738859338.162;50;16.05;38428.07
1738859338.211;50;16.05;38428.07
1738859338.261;50;16.21;38858.27
1738859338.311;50;16.07;38464.93
1738859338.362;50;15.55;37033.60
1738859338.411;50;15.55;37033.60
1738859338.462;50;16.51;39683.40
1738859338.512;50;15.41;36652.80
1738859338.562;50;14.80;34974.93
1738859338.612;50;14.80;34974.93
1738859338.662;50;17.05;41163.07
1738859338.712;50;16.71;40229.54
1738859338.763;50;16.71;40229.54
1738859338.812;50;15.33;36426.00
1738859338.862;50;16.11;38581.73
1738859338.913;50;16.11;38581.73
1738859338.962;50;15.42;36681.46
1738859339.012;50;14.99;35494.67
1738859339.062;50;14.99;35494.67
1738859339.112;50;14.99;35494.67
1738859339.313;50;16.65;40079.67
1738859349.428;50;15.54;37001.80
1738859349.478;50;15.54;37001.80
1738859349.528;50;15.54;37001.80
1738859349.578;50;16.55;39792.60
1738859349.628;50;15.29;36313.00
1738859349.678;50;15.29;36313.00
1738859349.729;50;16.75;40335.07
1738859349.779;50;17.29;41845.87
1738859349.828;50;17.29;41845.87
1738859349.878;50;15.91;38028.13
1738859349.928;50;18.26;44517.80
1738859349.978;50;18.26;44517.80
1738859350.029;50;18.26;44517.80
1738859350.079;50;15.44;36724.27
1738859350.129;50;15.44;36724.27
1738859350.178;50;15.44;36724.27
1738859350.229;50;16.44;39494.93
1738859350.279;50;17.55;42543.87
1738859350.328;50;17.55;42543.87
1738859350.379;50;17.03;41106.13
1738859350.429;50;15.99;38247.60
1738859350.478;50;15.99;38247.60
1738859350.528;50;15.92;38058.00
1738859350.579;50;15.61;37191.46
1738859350.630;50;15.61;37191.46
1738859350.680;50;15.61;37191.46
1738859350.729;50;16.23;38904.80
1738859350.779;50;17.45;42275.13
1738859350.829;50;17.45;42275.13
1738859350.879;50;15.45;36765.73
1738859350.929;50;15.45;36765.73
1738859350.979;50;15.45;36765.73
1738859351.029;50;16.68;40152.00
1738859351.079;50;17.03;41119.93
1738859351.129;50;17.03;41119.93
1738859351.179;50;16.94;40873.07
1738859351.230;50;16.69;40188.27
1738859351.280;50;16.69;40188.27
1738859351.330;50;16.69;40188.27
1738859351.380;50;14.93;35341.07
1738859351.430;50;14.93;35341.07
1738859351.480;50;14.93;35341.07
1738859351.530;50;17.72;43012.87
1738859351.580;50;17.39;42104.20
1738859351.631;50;17.39;42104.20
1738859351.681;50;16.32;39154.80
1738859351.730;50;17.43;42225.54
1738859351.780;50;16.59;39897.67
1738859351.831;50;16.59;39897.67
1738859351.880;50;17.63;42775.40
1738859351.930;50;17.53;42498.46
1738859351.981;50;17.53;42498.46
1738859352.031;50;16.69;40178.13
1738859352.080;50;17.02;41093.73
1738859352.131;50;17.02;41093.73
1738859352.181;50;17.02;41093.73
1738859352.231;50;16.56;39831.33
1738859352.281;50;18.33;44712.87
1738859352.330;50;18.33;44712.87
1738859352.380;50;18.33;44712.87
1738859352.431;50;17.05;41166.93
1738859352.480;50;17.46;42303.60
1738859352.531;50;17.46;42303.60
1738859352.581;50;17.46;42303.60
1738859352.631;50;16.75;40353.54
1738859352.681;50;16.33;39178.54
1738859352.732;50;16.33;39178.54
1738859352.782;50;17.49;42379.80
1738859352.831;50;16.25;38964.40
1738859352.881;50;16.25;38964.40
1738859352.931;50;16.25;38964.40
1738859352.983;50;15.15;35947.73
1738859353.032;50;18.38;44829.67
1738859353.082;50;18.38;44829.67
1738859353.132;50;18.38;44829.67
1738859353.182;50;17.54;42531.67
1738859353.233;50;17.54;42531.67
1738859353.282;50;17.54;42531.67
1738859353.333;50;18.74;45841.20
1738859353.382;50;17.25;41737.93
1738859353.433;50;17.25;41737.93
1738859353.483;50;16.75;40351.07
1738859353.533;50;17.83;43331.46
1738859353.583;50;17.83;43331.46
1738859353.633;50;17.83;43331.46
1738859353.683;50;17.91;43547.46
1738859353.734;50;17.01;41076.33
1738859353.783;50;17.01;41076.33
1738859353.833;50;17.01;41076.33
