UnixTimestamp;Microseconds;MilliAmpere;BaseValue
1739982055.115;400;21.79;37453.73
1739982055.163;400;21.79;37453.73
1739982055.212;400;21.79;37453.73
1739982055.263;400;23.71;41532.67
1739982055.313;400;23.71;41532.67
1739982055.363;400;21.43;36674.80
1739982055.413;400;22.37;38681.54
1739982055.463;400;22.37;38681.54
1739982055.513;400;24.60;43446.93
1739982055.563;400;23.45;40980.87
1739982055.614;400;23.45;40980.87
1739982055.664;400;23.43;40941.87
1739982055.714;400;23.43;40941.87
1739982055.764;400;23.43;40941.87
1739982055.815;400;24.18;42554.00
1739982055.865;400;24.18;42554.00
1739982055.916;400;23.22;40495.20
1739982056.066;400;23.77;41665.07
1739982056.116;400;23.77;41665.07
1739982056.166;400;22.20;38319.07
1739982056.216;400;22.12;38140.60
1739982056.266;400;22.12;38140.60
1739982056.317;400;24.67;43597.20
1739982056.366;400;24.67;43597.20
1739982056.416;400;24.67;43597.20
1739982056.466;400;24.57;43380.40
1739982056.516;400;24.57;43380.40
1739982056.566;400;25.21;44755.87
1739982056.617;400;25.27;44866.67
1739982056.668;400;25.27;44866.67
1739982056.717;400;25.34;45020.33
1739982056.767;400;25.34;45020.33
1739982056.817;400;25.34;45020.33
1739982056.866;400;22.47;38896.67
1739982056.918;400;22.47;38896.67
1739982056.967;400;22.93;39887.20
1739982057.017;400;25.44;45229.40
1739982057.067;400;25.44;45229.40
1739982057.118;400;22.31;38562.40
1739982057.168;400;21.33;36458.27
1739982057.218;400;21.33;36458.27
1739982057.269;400;21.59;37025.60
1739982057.318;400;21.59;37025.60
1739982057.368;400;25.34;45021.73
1739982057.418;400;25.34;45021.73
1739982057.468;400;22.54;39047.67
1739982057.518;400;23.76;41650.73
1739982057.568;400;23.76;41650.73
1739982057.618;400;22.01;37916.40
1739982057.668;400;23.04;40104.46
1739982057.719;400;23.04;40104.46
1739982057.768;400;22.46;38874.67
1739982057.819;400;22.46;38874.67
1739982057.869;400;23.78;41697.80
1739982057.918;400;22.53;39025.07
1739982057.968;400;22.53;39025.07
1739982058.018;400;24.31;42820.40
1739982058.069;400;24.31;42820.40
1739982058.119;400;24.31;42820.40
1739982058.169;400;25.30;44944.60
1739982058.218;400;25.30;44944.60
1739982058.269;400;21.34;36490.20
1739982058.318;400;21.34;36490.20
1739982058.368;400;21.34;36490.20
1739982058.419;400;22.98;39977.46
1739982058.468;400;22.98;39977.46
1739982058.518;400;22.98;39977.46
1739982058.569;400;22.50;38957.73
1739982058.618;400;22.50;38957.73
1739982058.819;400;21.59;37024.93
1739982058.868;400;21.59;37024.93
1739982058.919;400;22.00;37896.54
1739982058.969;400;22.00;37902.46
1739982059.019;400;22.00;37902.46
1739982059.069;400;21.95;37779.00
1739982059.119;400;21.95;37779.00
1739982059.169;400;25.28;44900.40
1739982059.219;400;25.28;44900.40
1739982059.269;400;25.28;44900.40
1739982059.319;400;22.52;38995.67
1739982059.369;400;22.52;38995.67
1739982059.419;400;22.52;38995.67
1739982059.469;400;22.14;38184.13
1739982059.520;400;22.14;38184.13
1739982059.569;400;22.74;39476.00
1739982059.620;400;22.74;39476.00
1739982059.669;400;21.46;36741.20
1739982059.720;400;24.58;43398.93
1739982059.770;400;24.58;43398.93
1739982059.820;400;24.56;43355.20
1739982070.198;400;21.87;37604.80
1739982070.247;400;21.87;37604.80
1739982070.298;400;21.31;36428.54
1739982070.348;400;21.31;36428.54
1739982070.398;400;21.31;36428.54
1739982070.448;400;23.68;41479.54
1739982070.498;400;23.68;41479.54
1739982070.549;400;23.68;41479.54
1739982070.599;400;22.63;39233.54
1739982070.650;400;22.63;39233.54
1739982070.700;400;24.30;42793.33
1739982070.749;400;25.16;44637.46
1739982070.799;400;25.16;44637.46
1739982071.102;400;23.60;41317.33
1739982071.152;400;21.71;37274.40
1739982071.202;400;21.71;37274.40
1739982071.252;400;23.34;40757.33
1739982071.302;400;23.34;40757.33
1739982071.353;400;23.34;40757.33
1739982071.404;400;24.08;42331.46
1739982071.454;400;24.08;42331.46
1739982071.503;400;23.31;40683.20
1739982071.554;400;23.31;40683.20
1739982071.604;400;23.31;40683.20
1739982071.654;400;22.81;39627.87
1739982071.704;400;22.81;39627.87
1739982071.754;400;21.68;37209.33
1739982071.804;400;23.54;41181.07
1739982071.854;400;23.54;41181.07
1739982071.904;400;21.58;36996.13
1739982071.954;400;21.58;36996.13
1739982072.004;400;23.31;40698.93
1739982072.054;400;24.66;43562.93
1739982072.105;400;24.66;43562.93
1739982072.154;400;25.44;45229.60
1739982072.205;400;23.51;41111.40
1739982072.255;400;23.51;41111.40
1739982072.305;400;23.27;40596.87
1739982072.355;400;23.27;40596.87
1739982072.405;400;23.27;40596.87
1739982072.455;400;25.07;44456.27
1739982072.505;400;25.07;44456.27
1739982072.555;400;22.31;38552.27
1739982072.605;400;23.21;40471.33
1739982072.655;400;23.21;40471.33
1739982072.705;400;23.22;40503.27
1739982072.755;400;23.22;40503.27
1739982072.806;400;22.84;39677.60
1739982072.856;400;24.66;43562.13
1739982072.906;400;24.66;43562.13
1739982072.956;400;22.82;39653.07
1739982073.006;400;25.18;44686.40
1739982073.056;400;25.18;44686.40
1739982073.106;400;23.35;40774.40
1739982073.157;400;23.35;40774.40
1739982073.206;400;25.43;45214.00
1739982073.256;400;25.18;44684.00
1739982073.306;400;25.18;44684.00
1739982073.355;400;22.84;39684.20
1739982073.406;400;25.04;44391.46
1739982073.456;400;25.04;44391.46
1739982073.506;400;23.71;41552.80
1739982073.556;400;23.71;41552.80
1739982073.605;400;22.41;38760.00
1739982073.656;400;23.96;42084.67
1739982073.706;400;23.96;42084.67
1739982073.755;400;22.94;39903.93
1739982073.807;400;22.94;39903.93
1739982073.856;400;22.94;39903.93
1739982073.907;400;22.16;38229.93
1739982073.956;400;22.16;38229.93
1739982074.006;400;22.82;39650.73
1739982074.056;400;22.82;39650.73
1739982074.106;400;22.82;39650.73
1739982074.157;400;25.37;45088.93
1739982074.207;400;25.37;45088.93
1739982074.257;400;25.37;45088.93
1739982084.009;400;21.44;36701.33
1739982084.061;400;21.44;36701.33
1739982084.109;400;21.74;37342.00
1739982084.159;400;21.74;37342.00
1739982084.209;400;21.74;37342.00
1739982084.260;400;23.44;40962.00
1739982084.309;400;23.44;40962.00
1739982084.359;400;21.41;36636.80
1739982084.409;400;22.05;38003.33
1739982084.460;400;22.05;38003.33
1739982084.660;400;22.86;39724.87
1739982084.710;400;22.86;39724.87
1739982084.760;400;22.86;39724.87
1739982084.810;400;25.53;45426.27
1739982084.860;400;25.53;45426.27
1739982084.910;400;25.82;46041.07
1739982084.961;400;25.82;46041.07
1739982085.010;400;25.29;44913.46
1739982085.160;400;22.38;38703.27
1739982085.211;400;21.70;37247.20
1739982085.261;400;21.70;37247.20
1739982085.311;400;22.85;39708.13
1739982085.361;400;22.85;39708.13
1739982085.410;400;24.24;42671.07
1739982085.461;400;24.24;42671.07
1739982085.512;400;24.24;42671.07
1739982085.561;400;23.75;41627.33
1739982085.611;400;22.92;39860.80
1739982085.661;400;22.92;39860.80
1739982085.711;400;23.77;41667.33
1739982085.761;400;23.77;41667.33
1739982085.811;400;23.77;41667.33
1739982085.861;400;23.36;40791.20
1739982085.911;400;23.36;40791.20
1739982085.961;400;23.17;40399.07
1739982086.012;400;22.85;39707.54
1739982086.061;400;22.85;39707.54
1739982086.111;400;24.59;43431.20
1739982086.161;400;24.59;43431.20
1739982086.211;400;24.50;43226.93
1739982086.262;400;24.50;43226.93
1739982086.311;400;24.50;43226.93
1739982086.362;400;22.64;39253.87
1739982086.411;400;22.64;39253.87
1739982086.462;400;23.34;40761.46
1739982086.512;400;25.07;44446.93
1739982086.562;400;25.07;44446.93
1739982086.611;400;23.99;42132.07
1739982086.661;400;23.99;42132.07
1739982086.712;400;23.99;42132.07
1739982086.761;400;25.05;44397.07
1739982086.811;400;25.05;44397.07
1739982086.863;400;24.62;43495.80
1739982086.912;400;22.71;39418.54
1739982086.963;400;22.71;39418.54
1739982087.012;400;21.99;37862.80
1739982087.063;400;21.99;37862.80
1739982087.113;400;22.57;39108.54
1739982087.162;400;22.57;39108.54
1739982087.213;400;22.78;39556.54
1739982087.263;400;24.28;42758.40
1739982087.313;400;24.28;42758.40
1739982087.363;400;23.15;40342.80
1739982087.414;400;24.65;43553.07
1739982087.463;400;24.65;43553.07
1739982087.513;400;25.83;46068.13
1739982087.563;400;25.83;46068.13
1739982087.664;400;24.75;43760.93
1739982087.713;400;24.75;43760.93
1739982087.763;400;25.04;44392.67
1739982087.813;400;24.14;42450.67
1739982087.864;400;24.14;42450.67
1739982087.914;400;25.27;44872.93
1739982087.964;400;25.27;44872.93
1739982088.014;400;25.16;44628.54
1739982088.065;400;22.76;39518.93
1739982088.114;400;22.76;39518.93
1739982088.213;400;25.45;45263.07
1739982088.265;400;25.45;45263.07
1739982088.316;400;21.31;36424.54
1739982088.365;400;21.31;36424.54
1739982088.415;400;22.19;38291.60
1739982088.465;400;23.44;40974.07
1739982088.515;400;23.44;40974.07
1739982088.565;400;25.18;44671.13
1739982352.293;107;10.00;37006.67
1739982352.344;107;10.00;37006.67
1739982352.444;122;10.00;43423.07
1739982352.494;122;10.00;43423.07
1739982352.544;117;10.00;41205.80
1739982352.593;117;10.00;41205.80
1739982352.644;117;10.00;41205.80
1739982352.693;126;10.00;45004.46
1739982352.744;126;10.00;45004.46
1739982352.794;108;10.00;37401.07
1739982352.844;108;10.00;37401.07
1739982352.893;108;10.00;37401.07
1739982352.944;109;10.00;37835.20
1739982352.994;109;10.00;37835.20
1739982353.044;128;10.00;45832.13
1739982353.094;116;10.00;40799.46
1739982353.145;116;10.00;40799.46
1739982353.195;125;10.00;44808.20
1739982353.245;125;10.00;44808.20
1739982353.295;125;10.00;44808.20
1739982353.345;113;10.00;39543.93
1739982353.395;113;10.00;39543.93
1739982353.446;113;10.00;39543.93
1739982353.495;107;10.00;36984.27
1739982353.546;107;10.00;36984.27
1739982353.596;115;10.00;40467.46
1739982353.646;115;10.00;40467.46
1739982353.696;121;10.00;43112.13
1739982353.746;122;10.00;43510.13
1739982353.796;122;10.00;43510.13
1739982353.847;122;10.00;43510.13
1739982353.897;106;10.00;36775.46
1739982353.947;106;10.00;36775.46
1739982353.997;125;10.00;44725.20
1739982354.047;117;10.00;41403.13
1739982354.097;117;10.00;41403.13
1739982354.148;125;10.00;44583.46
1739982354.197;125;10.00;44583.46
1739982354.248;125;10.00;44583.46
1739982354.298;123;10.00;44024.93
1739982354.348;123;10.00;44024.93
1739982354.397;133;10.00;48000.93
1739982354.448;123;10.00;43874.46
1739982354.498;123;10.00;43874.46
1739982354.548;122;10.00;43432.00
1739982354.598;122;10.00;43432.00
1739982354.648;122;10.00;43432.00
1739982354.697;119;10.00;41986.40
1739982354.748;119;10.00;41986.40
1739982354.799;116;10.00;41056.60
1739982354.848;121;10.00;43008.80
1739982354.897;121;10.00;43008.80
1739982354.948;125;10.00;44602.54
1739982354.998;116;10.00;40899.07
1739982355.047;116;10.00;40899.07
1739982355.098;121;10.00;42891.93
1739982355.148;121;10.00;42891.93
1739982355.197;121;10.00;42891.93
1739982355.248;109;10.00;37991.60
1739982355.298;109;10.00;37991.60
1739982355.348;116;10.00;40867.67
1739982355.398;129;10.00;46369.93
1739982355.448;129;10.00;46369.93
1739982355.498;120;10.00;42395.20
1739982355.549;120;10.00;42395.20
1739982355.598;120;10.00;42395.20
1739982355.648;108;10.00;37532.80
1739982355.699;108;10.00;37532.80
1739982355.749;114;10.00;40220.67
1739982355.799;111;10.00;39018.93
1739982355.849;111;10.00;39018.93
1739982355.898;108;10.00;37667.33
1739982355.949;108;10.00;37667.33
1739982355.999;108;10.00;37667.33
1739982356.048;112;10.00;39309.40
1739982356.098;112;10.00;39309.40
1739982356.149;113;10.00;39598.33
1739982356.199;127;10.00;45286.13
1739982356.249;127;10.00;45286.13
1739982356.299;121;10.00;43011.73
1739982356.350;121;10.00;43011.73
1739982356.400;121;10.00;43011.73
1739982356.450;109;10.00;38069.46
1739982356.500;109;10.00;38069.46
1739982356.550;112;10.00;39157.73
1739982356.600;127;10.00;45645.54
1739982356.650;127;10.00;45645.54
1739982356.801;110;10.00;38291.33
1739982366.799;106;10.00;36804.07
1739982366.850;106;10.00;36804.07
1739982366.899;118;10.00;41929.20
1739982366.950;118;10.00;41929.20
1739982366.999;113;10.00;39634.73
1739982367.049;118;10.00;41694.40
1739982367.100;118;10.00;41694.40
1739982367.150;113;10.00;39706.27
1739982367.200;113;10.00;39706.27
1739982367.249;113;10.00;39706.27
1739982367.299;127;10.00;45582.27
1739982367.350;127;10.00;45582.27
1739982367.399;110;10.00;38369.87
1739982367.449;110;10.00;38369.87
1739982367.500;121;10.00;42900.60
1739982367.550;124;10.00;44295.46
1739982367.600;124;10.00;44295.46
1739982367.650;124;10.00;44148.93
1739982367.700;124;10.00;44148.93
1739982367.750;115;10.00;40656.20
1739982367.799;115;10.00;40656.20
1739982367.850;115;10.00;40656.20
1739982367.900;110;10.00;38390.13
1739982367.950;110;10.00;38390.13
1739982368.000;111;10.00;38958.27
1739982368.050;111;10.00;38958.27
1739982368.100;120;10.00;42378.60
1739982368.150;120;10.00;42378.60
1739982368.200;120;10.00;42378.60
1739982368.251;116;10.00;40889.93
1739982368.300;116;10.00;40889.93
1739982368.350;125;10.00;44709.46
1739982368.400;125;10.00;44709.46
1739982368.451;112;10.00;39268.40
1739982368.601;105;10.00;36476.73
1739982368.651;105;10.00;36476.73
1739982368.701;115;10.00;40300.27
1739982368.752;115;10.00;40347.07
1739982368.802;115;10.00;40347.07
1739982368.852;123;10.00;43671.60
1739982368.902;123;10.00;43671.60
1739982368.952;126;10.00;45144.54
1739982369.002;128;10.00;45788.00
1739982369.052;128;10.00;45788.00
1739982369.102;122;10.00;43561.93
1739982369.152;122;10.00;43561.93
1739982369.203;124;10.00;44332.54
1739982369.253;124;10.00;44332.54
1739982369.302;121;10.00;42932.93
1739982369.353;121;10.00;42932.93
1739982369.403;121;10.00;42932.93
1739982369.453;119;10.00;42332.60
1739982369.503;119;10.00;42332.60
1739982369.553;131;10.00;47003.67
1739982369.603;131;10.00;47003.67
1739982369.653;110;10.00;38211.67
1739982369.703;119;10.00;42021.87
1739982369.753;119;10.00;42021.87
1739982369.803;120;10.00;42545.60
1739982369.853;120;10.00;42545.60
1739982369.903;117;10.00;41142.80
1739982369.952;117;10.00;41235.80
1739982370.003;117;10.00;41235.80
1739982370.103;121;10.00;42986.67
1739982370.153;121;10.00;42986.67
1739982370.204;117;10.00;41173.20
1739982370.255;117;10.00;41173.20
1739982370.305;115;10.00;40492.40
1739982370.355;115;10.00;40492.40
1739982370.405;115;10.00;40321.20
1739982370.455;113;10.00;39624.93
1739982370.505;113;10.00;39624.93
1739982370.555;127;10.00;45535.07
1739982370.605;127;10.00;45535.07
1739982370.655;109;10.00;38087.20
1739982370.705;109;10.00;38087.20
1739982370.755;109;10.00;38087.20
1739982370.805;119;10.00;42223.46
1739982370.855;119;10.00;42223.46
1739982370.905;110;10.00;38415.73
1739982370.955;110;10.00;38415.73
1739982371.005;125;10.00;44609.60
1739982371.055;118;10.00;41746.00
1739982371.105;118;10.00;41746.00
1739982371.155;125;10.00;44620.54
1739982371.206;125;10.00;44620.54
1739982371.256;119;10.00;42213.46
1739982380.426;107;10.00;37179.46
1739982380.676;106;10.00;36611.73
1739982380.726;106;10.00;36611.73
1739982380.776;106;10.00;36611.73
1739982380.826;110;10.00;38436.13
1739982380.877;110;10.00;38436.13
1739982380.927;106;10.00;36894.93
1739982380.977;106;10.00;36894.93
1739982381.026;112;10.00;39235.33
1739982381.076;112;10.00;39121.87
1739982381.127;112;10.00;39121.87
1739982381.177;111;10.00;38961.46
1739982381.227;111;10.00;38961.46
1739982381.276;114;10.00;40010.73
1739982381.327;114;10.00;40010.73
1739982381.377;117;10.00;41149.80
1739982381.427;112;10.00;39217.87
1739982381.478;112;10.00;39217.87
1739982381.527;111;10.00;38607.46
1739982381.577;111;10.00;38607.46
1739982381.627;118;10.00;41844.54
1739982381.677;118;10.00;41844.54
1739982381.728;118;10.00;41844.54
1739982381.777;122;10.00;43529.33
1739982381.827;122;10.00;43529.33
1739982381.878;112;10.00;39051.73
1739982381.928;112;10.00;39051.73
1739982381.978;116;10.00;40793.20
1739982382.028;124;10.00;44399.46
1739982382.078;124;10.00;44399.46
1739982382.128;108;10.00;37418.00
1739982382.178;108;10.00;37418.00
1739982382.227;114;10.00;39992.67
1739982382.278;114;10.00;39992.67
1739982382.327;123;10.00;43914.27
1739982382.378;123;10.00;43914.27
1739982382.428;131;10.00;47338.33
1739982382.478;131;10.00;47338.33
1739982382.528;130;10.00;46779.93
1739982382.578;120;10.00;42669.07
1739982382.628;120;10.00;42669.07
1739982382.678;120;10.00;42669.07
1739982382.728;120;10.00;42651.73
1739982382.779;120;10.00;42651.73
1739982382.828;128;10.00;45915.20
1739982382.878;128;10.00;45915.20
1739982382.928;119;10.00;42246.93
1739982382.979;119;10.00;42246.93
1739982383.029;129;10.00;46181.46
1739982383.078;123;10.00;43704.07
1739982383.129;123;10.00;43704.07
1739982383.179;128;10.00;45818.67
1739982383.228;127;10.00;45463.07
1739982383.279;127;10.00;45463.07
1739982383.429;116;10.00;40886.40
1739982383.479;116;10.00;40886.40
1739982383.528;125;10.00;44852.13
1739982383.579;122;10.00;43374.33
1739982383.628;122;10.00;43374.33
1739982383.679;126;10.00;45152.40
1739982383.729;126;10.00;45152.40
1739982383.779;124;10.00;44381.07
1739982383.829;124;10.00;44381.07
1739982383.880;125;10.00;44654.13
1739982383.929;121;10.00;42953.54
1739982383.980;121;10.00;42953.54
1739982384.029;121;10.00;43133.07
1739982384.079;121;10.00;43133.07
1739982384.129;110;10.00;38264.54
1739982384.179;110;10.00;38264.54
1739982384.229;114;10.00;40104.00
1739982555.045;106;30.00;36830.93
1739982555.094;106;30.00;36830.93
1739982555.145;111;30.00;38958.93
1739982555.196;113;30.00;39581.33
1739982555.245;113;30.00;39581.33
1739982555.296;124;30.00;44203.67
1739982555.345;124;30.00;44203.67
1739982555.396;124;30.00;44203.67
1739982555.446;107;30.00;37245.20
1739982555.495;107;30.00;37245.20
1739982555.546;107;30.00;37245.20
1739982555.596;113;30.00;39754.93
1739982555.646;113;30.00;39754.93
1739982555.696;129;30.00;46437.07
1739982555.748;129;30.00;46437.07
1739982555.796;129;30.00;46437.07
1739982555.847;117;30.00;41305.13
1739982555.897;115;30.00;40684.80
1739982555.946;115;30.00;40684.80
1739982555.996;125;30.00;44830.54
1739982556.047;125;30.00;44830.54
1739982556.096;125;30.00;44830.54
1739982556.147;123;30.00;43837.20
1739982556.197;123;30.00;43837.20
1739982556.297;106;30.00;36927.46
1739982556.347;106;30.00;36927.46
1739982556.397;126;30.00;44965.46
1739982556.447;126;30.00;44965.46
1739982556.497;114;30.00;40099.33
1739982556.547;114;30.00;40099.33
1739982556.597;114;30.00;40099.33
1739982556.647;112;30.00;39356.46
1739982556.698;112;30.00;39356.46
1739982556.747;112;30.00;39356.46
1739982556.797;109;30.00;37998.67
1739982556.848;109;30.00;37998.67
1739982556.897;127;30.00;45362.13
1739982556.948;127;30.00;45362.13
1739982556.998;127;30.00;45362.13
1739982557.047;126;30.00;45024.54
1739982557.098;126;30.00;45024.54
1739982557.147;106;30.00;36800.27
1739982557.198;106;30.00;36800.27
1739982557.247;106;30.00;36800.27
1739982557.297;111;30.00;38800.00
1739982557.348;111;30.00;38800.00
1739982557.398;119;30.00;42332.40
1739982557.447;108;30.00;37437.07
1739982557.498;108;30.00;37437.07
1739982557.549;112;30.00;39116.80
1739982557.599;112;30.00;39116.80
1739982557.649;112;30.00;39116.80
1739982557.698;116;30.00;40715.60
1739982557.748;116;30.00;40715.60
1739982557.849;120;30.00;42766.40
1739982557.898;120;30.00;42766.40
1739982557.949;123;30.00;43700.13
1739982557.999;123;30.00;43700.13
1739982558.049;123;30.00;43700.13
1739982558.098;125;30.00;44799.07
1739982558.149;125;30.00;44799.07
1739982558.199;112;30.00;39355.46
1739982558.249;111;30.00;38787.07
1739982558.299;111;30.00;38787.07
1739982558.348;117;30.00;41286.00
1739982558.399;119;30.00;42305.73
1739982558.449;119;30.00;42305.73
1739982558.500;124;30.00;44271.20
1739982558.550;124;30.00;44271.20
1739982558.600;124;30.00;44271.20
1739982558.650;123;30.00;43854.93
1739982558.700;123;30.00;43854.93
1739982558.750;122;30.00;43435.27
1739982558.800;113;30.00;39530.67
1739982558.850;113;30.00;39530.67
1739982558.900;113;30.00;39549.60
1739982558.951;113;30.00;39549.60
1739982559.001;113;30.00;39549.60
1739982559.051;109;30.00;38115.73
1739982559.101;109;30.00;38115.73
1739982559.151;109;30.00;38115.73
1739982559.451;112;30.00;39348.13
1739982559.502;112;30.00;39348.13
1739982559.552;108;30.00;37521.46
1739982559.602;112;30.00;39404.54
1739982559.652;112;30.00;39404.54
1739982559.702;120;30.00;42703.20
1739982559.752;120;30.00;42703.20
1739982559.802;123;30.00;44015.46
1739982559.852;113;30.00;39568.80
1739982559.902;113;30.00;39568.80
1739982559.953;122;30.00;43443.46
1739982570.081;115;30.00;40401.20
1739982570.232;107;30.00;36974.87
1739982570.282;107;30.00;36974.87
1739982570.331;121;30.00;43134.93
1739982570.383;121;30.00;43134.93
1739982570.433;121;30.00;43134.93
1739982570.483;116;30.00;40734.80
1739982570.533;116;30.00;40734.80
1739982570.583;116;30.00;40734.80
1739982570.733;121;30.00;43119.87
1739982570.783;121;30.00;43119.87
1739982570.833;121;30.00;43119.87
1739982570.883;115;30.00;40408.54
1739982570.933;115;30.00;40408.54
1739982570.983;115;30.00;40408.54
1739982571.033;126;30.00;44938.33
1739982571.083;126;30.00;44938.33
1739982571.133;124;30.00;44077.07
1739982571.184;118;30.00;41669.60
1739982571.233;118;30.00;41669.60
1739982571.284;110;30.00;38364.54
1739982571.333;112;30.00;39191.87
1739982571.385;112;30.00;39191.87
1739982571.434;111;30.00;38676.46
1739982571.485;111;30.00;38676.46
1739982571.534;108;30.00;37405.33
1739982571.584;108;30.00;37630.93
1739982571.634;108;30.00;37630.93
1739982571.685;123;30.00;43772.93
1739982571.735;123;30.00;43772.93
1739982571.784;123;30.00;43772.93
1739982571.835;123;30.00;43784.54
1739982571.884;123;30.00;43784.54
1739982571.935;126;30.00;45235.60
1739982571.985;110;30.00;38576.27
1739982572.034;110;30.00;38576.27
1739982572.085;121;30.00;43001.33
1739982572.135;111;30.00;38988.40
1739982572.184;111;30.00;38988.40
1739982572.336;109;30.00;38183.20
1739982572.386;109;30.00;38183.20
1739982572.436;111;30.00;38900.27
1739982572.486;127;30.00;45283.60
1739982572.536;127;30.00;45283.60
1739982572.687;107;30.00;37144.13
1739982572.737;117;30.00;41179.67
1739982572.787;117;30.00;41179.67
1739982572.836;118;30.00;41854.33
1739982572.887;118;30.00;41854.33
1739982572.937;122;30.00;43360.13
1739982572.987;127;30.00;45293.46
1739982573.037;127;30.00;45293.46
1739982573.088;107;30.00;37020.93
1739982573.237;112;30.00;39221.73
1739982573.288;112;30.00;39221.73
1739982573.338;111;30.00;38907.73
1739982573.388;111;30.00;38907.73
1739982573.438;111;30.00;38907.73
1739982573.488;114;30.00;40212.40
1739982573.537;110;30.00;38371.07
1739982573.587;110;30.00;38371.07
1739982573.638;118;30.00;41787.73
1739982573.688;118;30.00;41787.73
1739982573.737;110;30.00;38605.27
1739982573.788;110;30.00;38605.27
1739982573.838;110;30.00;38605.27
1739982574.038;127;30.00;45453.20
1739982574.088;127;30.00;45453.20
1739982574.138;114;30.00;40226.67
1739982574.187;114;30.00;40226.67
1739982574.237;116;30.00;40962.60
1739982574.288;120;30.00;42715.33
1739982574.337;120;30.00;42715.33
1739982574.388;120;30.00;42550.20
1739982574.438;120;30.00;42550.20
1739982574.488;116;30.00;40712.13
1739982574.538;116;30.00;40712.13
1739982574.589;126;30.00;44963.87
1739982584.267;114;30.00;40114.54
1739982584.317;114;30.00;40114.54
1739982584.367;114;30.00;40114.54
1739982584.769;108;30.00;37415.33
1739982584.819;108;30.00;37415.33
1739982584.869;120;30.00;42643.33
1739982584.918;120;30.00;42643.33
1739982584.969;106;30.00;36895.46
1739982585.019;109;30.00;37798.00
1739982585.070;109;30.00;37798.00
1739982585.120;109;30.00;37848.40
1739982585.169;109;30.00;37848.40
1739982585.219;117;30.00;41448.07
1739982585.269;117;30.00;41448.07
1739982585.319;121;30.00;42877.33
1739982585.369;121;30.00;42877.33
1739982585.419;121;30.00;42877.33
1739982585.469;114;30.00;39878.33
1739982585.519;114;30.00;39878.33
1739982585.570;114;30.00;39878.33
1739982585.620;128;30.00;45755.87
1739982585.670;128;30.00;45755.87
1739982585.720;107;30.00;37261.13
1739982585.870;113;30.00;39650.54
1739982585.920;113;30.00;39650.54
1739982585.970;114;30.00;40076.80
1739982586.020;114;30.00;40076.80
1739982586.071;114;30.00;40076.80
1739982586.121;126;30.00;44991.60
1739982586.171;126;30.00;44991.60
1739982586.320;112;30.00;39148.13
1739982586.370;112;30.00;39148.13
1739982586.421;112;30.00;39148.13
1739982586.471;120;30.00;42372.27
1739982586.520;120;30.00;42372.27
1739982586.571;106;30.00;36662.67
1739982586.620;106;30.00;36662.67
1739982586.671;112;30.00;39275.73
1739982586.721;109;30.00;37804.13
1739982586.772;109;30.00;37804.13
1739982586.821;105;30.00;36439.20
1739982586.872;105;30.00;36439.20
1739982586.921;111;30.00;38937.60
1739982586.972;111;30.00;38937.60
1739982587.021;114;30.00;40273.33
1739982587.071;114;30.00;40273.33
1739982587.121;114;30.00;40273.33
1739982587.171;112;30.00;39301.67
1739982587.221;112;30.00;39301.67
1739982587.271;121;30.00;43070.13
1739982587.321;121;30.00;43070.13
1739982587.371;112;30.00;39132.60
1739982587.422;109;30.00;38155.27
1739982587.472;109;30.00;38155.27
1739982587.521;122;30.00;43389.33
1739982587.571;122;30.00;43389.33
1739982587.621;127;30.00;45678.60
1739982587.671;109;30.00;38040.54
1739982587.723;109;30.00;38040.54
1739982587.772;126;30.00;45087.67
1739982587.823;126;30.00;45087.67
1739982588.022;109;30.00;37972.93
1739982588.073;109;30.00;37972.93
1739982588.123;108;30.00;37548.40
1739982588.173;108;30.00;37548.40
1739982588.223;116;30.00;40733.07
1739982588.273;114;30.00;40251.87
1739982588.323;114;30.00;40251.87
1739982588.373;124;30.00;44162.13
1739982588.423;124;30.00;44162.13
1739982588.474;111;30.00;38871.46
1739982588.525;115;30.00;40451.20
1739982588.574;115;30.00;40451.20
1739982588.624;110;30.00;38574.40
1739982588.674;110;30.00;38574.40
1739982919.750;200;21.83;37526.67
1739982919.799;200;21.83;37526.67
1739982919.849;200;25.03;44369.87
1739982919.900;200;25.03;44369.87
1739982919.950;200;25.03;44369.87
1739982919.999;200;24.87;44025.87
1739982920.050;200;24.87;44025.87
1739982920.100;200;24.93;44150.00
1739982920.149;200;24.52;43266.80
1739982920.200;200;24.52;43266.80
1739982920.250;200;22.03;37963.40
1739982920.300;200;22.03;37963.40
1739982920.351;200;21.93;37736.93
1739982920.401;200;24.55;43344.93
1739982920.450;200;24.55;43344.93
1739982920.650;200;21.87;37623.13
1739982920.700;200;21.87;37623.13
1739982920.750;200;21.87;37623.13
1739982920.801;200;24.65;43548.93
1739982920.850;200;24.65;43548.93
1739982920.901;200;25.04;44376.27
1739982920.951;200;23.57;41240.93
1739982921.000;200;23.57;41240.93
1739982921.050;200;24.24;42679.20
1739982921.101;200;24.24;42679.20
1739982921.151;200;24.24;42679.20
1739982921.201;200;24.68;43607.07
1739982921.250;200;24.68;43607.07
1739982921.302;200;24.25;42686.93
1739982921.351;200;24.25;42686.93
1739982921.401;200;24.82;43902.27
1739982921.451;200;23.38;40828.93
1739982921.501;200;23.38;40828.93
1739982921.551;200;22.16;38233.00
1739982921.601;200;22.16;38233.00
1739982921.651;200;22.16;38233.00
1739982921.852;200;22.43;38804.13
1739982921.902;200;22.43;38804.13
1739982921.952;200;25.40;45153.73
1739982922.002;200;25.40;45153.73
1739982922.051;200;25.40;45153.73
1739982922.403;200;22.10;38103.46
1739982922.453;200;22.10;38103.46
1739982922.503;200;22.71;39417.54
1739982922.553;200;23.72;41562.00
1739982922.602;200;23.72;41562.00
1739982922.653;200;24.37;42943.60
1739982922.702;200;23.62;41354.93
1739982922.752;200;23.62;41354.93
1739982922.803;200;23.93;42020.00
1739982922.852;200;23.93;42020.00
1739982922.902;200;22.79;39574.87
1739982922.953;200;23.74;41603.33
1739982923.003;200;23.74;41603.33
1739982923.053;200;22.80;39601.60
1739982923.203;200;23.41;40907.07
1739982923.252;200;23.41;40907.07
1739982923.303;200;21.47;36766.54
1739982923.352;200;24.02;42214.80
1739982923.403;200;24.02;42214.80
1739982923.453;200;24.08;42340.67
1739982923.602;200;21.44;36695.73
1739982923.653;200;21.44;36695.73
1739982923.702;200;24.87;44030.13
1739982923.753;200;24.46;43139.60
1739982923.803;200;24.46;43139.60
1739982923.853;200;24.35;42915.67
1739982923.903;200;24.35;42915.67
1739982923.953;200;25.95;46324.00
1739982924.003;200;21.39;36581.73
1739982924.053;200;21.39;36581.73
1739982924.102;200;25.79;45984.73
1739982924.153;200;25.79;45984.73
1739982924.202;200;25.79;45984.73
1739982924.253;200;24.69;43633.20
1739982924.303;200;24.69;43633.20
1739982924.353;200;23.36;40790.67
1739982924.402;200;24.44;43094.80
1739982924.453;200;24.44;43094.80
1739982924.503;200;24.70;43652.54
1739982924.553;200;24.70;43652.54
1739982924.603;200;24.08;42337.13
1739982924.654;200;21.28;36362.93
1739982924.704;200;21.28;36362.93
1739982924.754;200;22.61;39194.00
1739982934.538;200;21.59;37024.93
1739982934.588;200;21.59;37024.93
1739982934.639;200;24.89;44054.00
1739982934.690;200;24.89;44054.00
1739982934.739;200;24.80;43859.73
1739982934.789;200;24.80;43859.73
1739982934.839;200;25.72;45827.87
1739982934.888;200;25.54;45444.54
1739982934.939;200;25.54;45444.54
1739982934.989;200;22.85;39703.87
1739982935.039;200;22.85;39703.87
1739982935.088;200;22.54;39036.67
1739982935.139;200;22.54;39036.67
1739982935.189;200;23.47;41021.60
1739982935.239;200;22.89;39782.27
1739982935.289;200;22.89;39782.27
1739982935.339;200;21.69;37226.40
1739982935.389;200;21.69;37226.40
1739982935.439;200;22.22;38365.60
1739982935.489;200;22.05;38006.67
1739982935.539;200;22.05;38006.67
1739982935.589;200;23.34;40743.46
1739982935.639;200;23.34;40743.46
1739982935.690;200;26.07;46587.54
1739982935.740;200;26.07;46587.54
1739982935.789;200;26.07;46587.54
1739982935.840;200;25.18;44672.54
1739982935.890;200;25.18;44672.54
1739982935.940;200;22.92;39852.93
1739982935.990;200;22.92;39852.93
1739982936.041;200;23.37;40826.67
1739982936.091;200;23.37;40826.67
1739982936.141;200;23.37;40826.67
1739982936.191;200;21.39;36596.46
1739982936.240;200;21.39;36596.46
1739982936.290;200;21.38;36572.40
1739982936.341;200;21.38;36572.40
1739982936.391;200;21.97;37820.00
1739982936.441;200;21.97;37820.00
1739982936.491;200;21.97;37820.00
1739982936.541;200;22.15;38210.60
1739982936.591;200;22.15;38210.60
1739982936.641;200;21.58;37000.93
1739982936.691;200;21.58;37000.93
1739982936.741;200;21.58;37000.93
1739982936.791;200;22.69;39375.73
1739982936.841;200;22.69;39375.73
1739982936.891;200;23.51;41116.60
1739982936.942;200;22.25;38417.60
1739982936.991;200;22.25;38417.60
1739982937.042;200;25.41;45162.13
1739982937.092;200;25.41;45162.13
1739982937.242;200;25.25;44827.73
1739982937.292;200;21.61;37052.93
1739982937.342;200;21.61;37052.93
1739982937.392;200;25.65;45686.80
1739982937.443;200;25.65;45686.80
1739982937.492;200;25.60;45585.87
1739982937.542;200;25.60;45585.87
1739982937.593;200;22.63;39243.33
1739982937.643;200;22.29;38520.93
1739982937.692;200;22.29;38520.93
1739982937.742;200;25.01;44321.00
1739982937.794;200;25.01;44321.00
1739982937.844;200;22.71;39408.27
1739982937.894;200;22.71;39408.27
1739982937.944;200;23.38;40840.00
1739982937.994;200;21.74;37335.46
1739982938.045;200;21.74;37335.46
1739982938.094;200;22.83;39668.13
1739982938.144;200;22.83;39668.13
1739982938.195;200;25.00;44306.13
1739982938.244;200;24.63;43508.93
1739982938.294;200;24.63;43508.93
1739982948.702;200;22.58;39134.13
1739982948.753;200;22.58;39134.13
1739982948.854;200;24.63;43508.93
1739982948.904;200;24.63;43508.93
1739982948.954;200;21.81;37489.73
1739982949.004;200;21.81;37489.73
1739982949.054;200;21.73;37310.13
1739982949.104;200;22.38;38694.54
1739982949.154;200;22.38;38694.54
1739982949.204;200;23.62;41343.80
1739982949.254;200;23.62;41343.80
1739982949.304;200;23.62;41343.80
1739982949.354;200;24.96;44219.20
1739982949.404;200;24.18;42549.07
1739982949.454;200;24.18;42549.07
1739982949.504;200;23.61;41331.33
1739982949.554;200;23.61;41331.33
1739982949.604;200;24.03;42234.40
1739982949.654;200;22.63;39228.80
1739982949.704;200;22.63;39228.80
1739982949.754;200;23.51;41111.33
1739982949.804;200;24.21;42619.73
1739982949.854;200;24.21;42619.73
1739982949.904;200;21.64;37129.33
1739982949.954;200;21.64;37129.33
1739982950.004;200;22.89;39793.60
1739982950.054;200;22.48;38912.00
1739982950.104;200;22.48;38912.00
1739982950.154;200;21.84;37558.93
1739982950.204;200;21.60;37034.93
1739982950.254;200;21.60;37034.93
1739982950.304;200;23.17;40389.33
1739982950.355;200;23.17;40389.33
1739982950.405;200;22.96;39950.54
1739982950.455;200;21.93;37733.87
1739982950.504;200;21.93;37733.87
1739982950.554;200;22.78;39550.54
1739982950.704;200;22.80;39597.87
1739982950.755;200;22.80;39597.87
1739982950.804;200;22.80;39597.87
1739982950.854;200;24.06;42300.93
1739982950.905;200;24.06;42300.93
1739982950.955;200;21.53;36886.13
1739982951.005;200;25.03;44350.67
1739982951.055;200;25.03;44350.67
1739982951.105;200;21.65;37140.13
1739982951.155;200;21.65;37140.13
1739982951.205;200;24.76;43779.46
1739982951.355;200;21.57;36973.20
1739982951.405;200;21.93;37745.73
1739982951.455;200;21.93;37745.73
1739982951.505;200;23.08;40199.60
1739982951.555;200;23.08;40199.60
1739982951.605;200;23.08;40199.60
1739982951.656;200;23.77;41672.93
1739982951.707;200;23.77;41672.93
1739982951.906;200;22.85;39716.54
1739982951.957;200;22.85;39716.54
1739982952.007;200;23.45;40990.40
1739982952.057;200;24.73;43727.93
1739982952.107;200;24.73;43727.93
1739982952.156;200;21.36;36527.33
1739982952.207;200;23.32;40718.40
1739982952.257;200;23.32;40718.40
1739982952.307;200;24.31;42829.20
1739982952.357;200;24.31;42829.20
1739982952.407;200;22.26;38438.93
1739982952.458;200;21.82;37516.27
1739982952.507;200;21.82;37516.27
1739982952.558;200;23.44;40960.54
1739982952.608;200;23.44;40960.54
1739982952.658;200;23.44;40960.54
1739982952.708;200;23.10;40236.27
1739982952.758;200;23.10;40236.27
1739982952.808;200;22.87;39749.07
1739983070.891;115;50.00;40555.40
1739983070.940;115;50.00;40555.40
1739983070.991;115;50.00;40555.40
1739983071.041;123;50.00;43808.00
1739983071.091;123;50.00;43808.00
1739983071.191;112;50.00;39160.27
1739983071.241;112;50.00;39160.27
1739983071.292;106;50.00;36532.13
1739983071.341;106;50.00;36532.13
1739983071.392;127;50.00;45352.60
1739983071.442;129;50.00;46130.40
1739983071.491;129;50.00;46130.40
1739983071.541;120;50.00;42633.87
1739983071.591;134;50.00;48465.73
1739983071.642;134;50.00;48465.73
1739983071.691;106;50.00;36559.07
1739983071.741;106;50.00;36559.07
1739983071.792;110;50.00;38538.40
1739983071.842;129;50.00;46206.67
1739983071.892;129;50.00;46206.67
1739983071.941;111;50.00;38646.54
1739983071.992;113;50.00;39584.00
1739983072.041;113;50.00;39584.00
1739983072.241;108;50.00;37627.07
1739983072.291;108;50.00;37627.07
1739983072.494;116;50.00;40758.27
1739983072.544;116;50.00;40758.27
1739983072.594;116;50.00;40758.27
1739983072.644;115;50.00;40396.13
1739983072.694;115;50.00;40396.13
1739983072.744;116;50.00;40916.40
1739983072.794;107;50.00;37065.60
1739983072.844;107;50.00;37065.60
1739983072.894;116;50.00;40818.40
1739983072.944;116;50.00;40818.40
1739983072.994;116;50.00;40818.40
1739983073.194;110;50.00;38393.87
1739983073.245;110;50.00;38393.87
1739983073.294;135;50.00;48665.87
1739983073.344;135;50.00;48665.87
1739983073.395;135;50.00;48665.87
1739983073.444;120;50.00;42697.46
1739983073.494;120;50.00;42697.46
1739983073.544;108;50.00;37573.60
1739983073.594;112;50.00;39127.87
1739983073.644;112;50.00;39127.87
1739983073.694;110;50.00;38485.33
1739983073.845;109;50.00;38158.54
1739983073.895;109;50.00;38158.54
1739983073.945;110;50.00;38277.33
1739983073.995;111;50.00;38648.00
1739983074.046;111;50.00;38648.00
1739983074.095;121;50.00;43087.33
1739983074.145;121;50.00;43087.33
1739983074.195;121;50.00;43087.33
1739983074.245;134;50.00;48364.20
1739983074.295;134;50.00;48364.20
1739983074.345;118;50.00;41781.46
1739983074.396;107;50.00;37169.73
1739983074.445;107;50.00;37169.73
1739983074.495;111;50.00;38793.13
1739983074.545;111;50.00;38793.13
1739983074.596;111;50.00;38793.13
1739983074.645;132;50.00;47720.13
1739983074.696;132;50.00;47720.13
1739983074.746;132;50.00;47720.13
1739983074.796;123;50.00;43922.93
1739983074.846;123;50.00;43922.93
1739983074.895;111;50.00;38887.93
1739983074.945;110;50.00;38286.20
1739983074.995;110;50.00;38286.20
1739983075.046;116;50.00;41001.20
1739983075.095;116;50.00;41001.20
1739983075.146;116;50.00;41001.20
1739983075.195;121;50.00;42938.54
1739983075.246;121;50.00;42938.54
1739983075.296;109;50.00;37907.60
1739983075.345;109;50.00;37907.60
1739983075.395;109;50.00;37907.60
1739983075.445;118;50.00;41802.80
1739983075.496;118;50.00;41802.80
1739983075.545;119;50.00;42200.93
1739983075.595;124;50.00;44154.67
1739983075.645;124;50.00;44154.67
1739983085.520;109;50.00;38007.73
1739983085.570;109;50.00;38007.73
1739983085.621;107;50.00;37118.80
1739983085.671;107;50.00;37118.80
1739983085.721;107;50.00;37118.80
1739983085.770;114;50.00;40258.93
1739983085.820;114;50.00;40258.93
1739983085.870;116;50.00;40720.27
1739983085.921;123;50.00;43751.13
1739983085.971;123;50.00;43751.13
1739983086.021;125;50.00;44669.60
1739983086.271;110;50.00;38430.67
1739983086.321;106;50.00;36683.46
1739983086.371;106;50.00;36683.46
1739983086.422;114;50.00;40121.60
1739983086.471;114;50.00;40121.60
1739983086.521;114;50.00;40121.60
1739983086.571;116;50.00;40949.33
1739983086.621;116;50.00;40949.33
1739983086.671;109;50.00;37867.46
1739983086.721;109;50.00;37867.46
1739983086.772;109;50.00;37867.46
1739983086.822;121;50.00;42831.33
1739983086.872;121;50.00;42831.33
1739983086.922;121;50.00;42831.33
1739983086.972;131;50.00;47260.27
1739983087.022;131;50.00;47260.27
1739983087.072;121;50.00;42880.93
1739983087.122;121;50.00;42880.93
1739983087.172;121;50.00;42880.93
1739983087.222;117;50.00;41480.80
1739983087.273;118;50.00;41592.80
1739983087.322;118;50.00;41592.80
1739983087.373;127;50.00;45655.33
1739983087.423;127;50.00;45655.33
1739983087.472;110;50.00;38297.40
1739983087.523;110;50.00;38297.40
1739983087.573;110;50.00;38297.40
1739983087.624;114;50.00;40110.93
1739983087.674;114;50.00;40110.93
1739983087.724;120;50.00;42391.07
1739983087.874;114;50.00;39902.00
1739983087.924;114;50.00;39902.00
1739983087.974;112;50.00;39284.33
1739983088.124;126;50.00;45000.00
1739983088.374;107;50.00;37226.00
1739983088.424;117;50.00;41234.13
1739983088.474;117;50.00;41234.13
1739983088.675;106;50.00;36882.13
1739983088.725;106;50.00;36882.13
1739983088.775;113;50.00;39752.67
1739983088.825;113;50.00;39752.67
1739983088.875;113;50.00;39752.67
1739983088.925;106;50.00;36914.93
1739983088.975;106;50.00;36914.93
1739983089.025;111;50.00;39018.40
1739983089.075;111;50.00;38767.73
1739983089.125;111;50.00;38767.73
1739983089.175;122;50.00;43289.33
1739983089.225;122;50.00;43289.33
1739983089.275;110;50.00;38287.73
1739983089.325;110;50.00;38287.73
1739983089.376;110;50.00;38287.73
1739983089.425;135;50.00;48881.73
1739983089.475;135;50.00;48881.73
1739983089.525;135;50.00;48881.73
1739983089.576;120;50.00;42391.73
1739983089.625;120;50.00;42391.73
1739983089.676;112;50.00;39299.07
1739983089.725;112;50.00;39299.07
1739983089.775;125;50.00;44532.80
1739983089.825;126;50.00;44864.54
1739983089.875;126;50.00;44864.54
1739983089.926;109;50.00;38142.13
1739983089.975;109;50.00;38142.13
1739983090.026;109;50.00;38142.13
1739983099.940;105;50.00;36357.33
1739983100.190;106;50.00;36726.33
1739983100.240;112;50.00;39397.33
1739983100.290;112;50.00;39397.33
1739983100.340;123;50.00;43633.73
1739983100.391;112;50.00;39161.46
1739983100.441;112;50.00;39161.46
1739983100.490;121;50.00;43130.40
1739983100.541;121;50.00;43130.40
1739983100.741;116;50.00;40842.73
1739983100.791;116;50.00;40842.73
1739983100.842;116;50.00;40842.73
1739983100.892;123;50.00;44013.73
1739983100.944;123;50.00;44013.73
1739983100.992;132;50.00;47389.20
1739983101.042;132;50.00;47389.20
1739983101.092;132;50.00;47389.20
1739983101.143;130;50.00;46676.33
1739983101.192;130;50.00;46676.33
1739983101.243;130;50.00;46676.33
1739983101.292;131;50.00;47045.54
1739983101.343;131;50.00;47045.54
1739983101.393;126;50.00;44878.54
1739983101.443;126;50.00;44878.54
1739983101.493;126;50.00;44878.54
1739983101.543;124;50.00;44323.20
1739983101.593;124;50.00;44323.20
1739983101.642;124;50.00;44323.20
1739983101.693;122;50.00;43230.54
1739983101.743;122;50.00;43230.54
1739983101.793;106;50.00;36600.00
1739983101.844;106;50.00;36600.00
1739983102.044;109;50.00;38138.40
1739983102.094;109;50.00;37961.60
1739983102.144;109;50.00;37961.60
1739983102.194;125;50.00;44478.27
1739983102.244;111;50.00;38742.40
1739983102.294;111;50.00;38742.40
1739983102.344;110;50.00;38394.67
1739983102.394;110;50.00;38394.67
1739983102.444;110;50.00;38394.67
1739983102.494;126;50.00;45256.13
1739983102.544;126;50.00;45256.13
1739983102.594;116;50.00;41109.46
1739983102.644;116;50.00;41109.46
1739983102.694;116;50.00;41109.46
1739983102.744;119;50.00;42277.33
1739983102.794;119;50.00;42277.33
1739983102.844;112;50.00;39323.40
1739983102.894;109;50.00;37996.67
1739983102.944;109;50.00;37996.67
1739983102.994;120;50.00;42501.13
1739983103.045;120;50.00;42501.13
1739983103.095;120;50.00;42501.13
1739983103.145;128;50.00;45913.73
1739983103.195;128;50.00;45913.73
1739983103.245;125;50.00;44454.20
1739983103.296;132;50.00;47394.54
1739983103.345;132;50.00;47394.54
1739983103.396;127;50.00;45593.73
1739983103.445;127;50.00;45593.73
1739983103.495;127;50.00;45593.73
1739983103.545;124;50.00;44204.80
1739983103.596;124;50.00;44204.80
1739983103.646;122;50.00;43300.33
1739983103.696;106;50.00;36542.27
1739983103.745;106;50.00;36542.27
1739983103.795;120;50.00;42590.80
1739983103.846;120;50.00;42590.80
1739983103.896;120;50.00;42590.80
1739983104.047;130;50.00;46709.20
1739983104.096;112;50.00;39298.93
1739983104.146;112;50.00;39298.93
1739983104.296;111;50.00;38976.93
1739983104.347;111;50.00;38781.87
1739983104.397;111;50.00;38781.87
1739983104.447;107;50.00;37317.46
1739983104.496;106;50.00;36684.00
1739983104.547;106;50.00;36684.00
1739983219.661;300;21.40;36606.27
1739983219.710;300;21.81;37487.73
1739983219.761;300;21.81;37487.73
1739983219.811;300;22.74;39482.13
1739983219.861;300;22.74;39482.13
1739983219.911;300;23.11;40268.60
1739983219.960;300;23.01;40038.27
1739983220.010;300;23.01;40038.27
1739983220.061;300;21.96;37804.00
1739983220.111;300;21.96;37804.00
1739983220.162;300;21.96;37804.00
1739983220.211;300;22.28;38490.54
1739983220.262;300;22.28;38490.54
1739983220.311;300;22.68;39338.46
1739983220.362;300;22.68;39338.46
1739983220.411;300;22.35;38643.07
1739983220.461;300;24.54;43312.93
1739983220.512;300;24.54;43312.93
1739983220.562;300;23.15;40338.20
1739983220.612;300;23.39;40854.27
1739983220.662;300;23.39;40854.27
1739983220.712;300;22.12;38149.87
1739983220.762;300;21.68;37213.60
1739983220.812;300;21.68;37213.60
1739983220.862;300;23.96;42075.20
1739983220.912;300;23.96;42075.20
1739983220.962;300;23.96;42075.20
1739983221.012;300;21.87;37616.33
1739983221.062;300;21.87;37616.33
1739983221.112;300;24.87;44027.60
1739983221.162;300;24.87;44027.60
1739983221.212;300;24.87;44027.60
1739983221.262;300;22.98;39995.00
1739983221.312;300;22.98;39995.00
1739983221.362;300;24.54;43317.20
1739983221.412;300;23.14;40326.80
1739983221.462;300;23.14;40326.80
1739983221.512;300;23.37;40817.33
1739983221.562;300;23.37;40817.33
1739983221.612;300;23.37;40817.33
1739983221.663;300;25.12;44552.80
1739983221.718;300;25.12;44552.80
1739983221.765;300;25.17;44656.00
1739983221.815;300;25.17;44656.00
1739983221.866;300;25.17;44656.00
1739983221.916;300;23.60;41311.07
1739983221.966;300;23.60;41311.07
1739983222.016;300;24.20;42580.00
1739983222.065;300;24.20;42580.00
1739983222.116;300;24.20;42580.00
1739983222.165;300;24.73;43717.87
1739983222.217;300;24.73;43717.87
1739983222.267;300;24.49;43215.87
1739983222.317;300;21.96;37807.87
1739983222.367;300;21.96;37807.87
1739983222.417;300;24.26;42706.73
1739983222.467;300;24.26;42706.73
1739983222.517;300;24.26;42706.73
1739983222.568;300;24.28;42754.00
1739983222.617;300;24.28;42754.00
1739983222.668;300;25.07;44454.80
1739983222.718;300;24.18;42548.93
1739983222.768;300;24.18;42548.93
1739983222.818;300;24.49;43200.40
1739983222.868;300;24.49;43200.40
1739983222.919;300;24.49;43200.40
1739983222.968;300;23.63;41380.00
1739983223.019;300;23.63;41380.00
1739983223.069;300;23.63;41380.00
1739983223.119;300;25.44;45228.00
1739983223.170;300;25.44;45228.00
1739983223.220;300;23.95;42057.07
1739983223.269;300;23.95;42057.07
1739983223.319;300;23.95;42057.07
1739983223.369;300;25.24;44801.60
1739983223.419;300;25.24;44801.60
1739983223.469;300;25.87;46158.93
1739983223.519;300;25.87;46158.93
1739983223.569;300;25.87;46158.93
1739983223.621;300;25.30;44934.93
1739983223.670;300;25.30;44934.93
1739983223.719;300;24.48;43193.07
1739983223.771;300;23.68;41472.40
1739983223.820;300;23.68;41472.40
1739983223.871;300;25.06;44430.93
1739983223.920;300;25.06;44430.93
1739983223.971;300;25.06;44430.93
1739983224.021;300;24.75;43762.27
1739983224.076;300;24.75;43762.27
1739983224.124;300;24.64;43528.46
1739983224.174;300;24.64;43528.46
1739983224.224;300;24.64;43528.46
1739983224.274;300;24.96;44208.93
1739983224.324;300;24.96;44208.93
1739983224.374;300;24.96;44208.93
1739983224.424;300;24.49;43206.93
1739983224.474;300;24.49;43206.93
1739983234.292;300;21.42;36645.20
1739983234.544;300;21.43;36678.13
1739983234.594;300;21.35;36494.67
1739983234.644;300;21.35;36494.67
1739983234.694;300;21.35;36494.67
1739983234.744;300;24.82;43922.27
1739983234.794;300;24.82;43922.27
1739983234.995;300;22.41;38765.33
1739983235.044;300;22.41;38765.33
1739983235.095;300;22.41;38765.33
1739983235.145;300;24.81;43898.13
1739983235.195;300;24.81;43898.13
1739983235.245;300;24.39;42999.73
1739983235.295;300;24.39;42999.73
1739983235.345;300;24.39;42999.73
1739983235.395;300;25.71;45811.60
1739983235.446;300;25.71;45811.60
1739983235.495;300;25.71;45811.60
1739983235.545;300;23.90;41944.33
1739983235.595;300;23.90;41944.33
1739983235.645;300;23.52;41138.80
1739983235.695;300;23.52;41138.80
1739983235.745;300;22.35;38643.87
1739983235.796;300;23.00;40017.87
1739983235.845;300;23.00;40017.87
1739983235.896;300;22.46;38882.00
1739983235.946;300;25.78;45954.80
1739983235.997;300;25.78;45954.80
1739983236.046;300;24.21;42606.67
1739983236.097;300;24.21;42606.67
1739983236.147;300;24.21;42606.67
1739983236.198;300;21.97;37826.54
1739983236.246;300;23.50;41095.60
1739983236.297;300;23.50;41095.60
1739983236.346;300;23.53;41158.54
1739983236.397;300;23.39;40868.67
1739983236.447;300;23.39;40868.67
1739983236.497;300;21.57;36982.80
1739983236.547;300;21.57;36982.80
1739983236.597;300;21.57;36982.80
1739983236.647;300;24.01;42178.73
1739983236.697;300;24.01;42178.73
1739983236.747;300;23.02;40071.07
1739983236.797;300;23.75;41618.67
1739983236.846;300;23.75;41618.67
1739983236.897;300;22.70;39386.00
1739983236.947;300;21.40;36618.27
1739983236.996;300;21.40;36618.27
1739983237.047;300;23.40;40887.60
1739983237.097;300;23.40;40887.60
1739983237.147;300;23.17;40392.13
1739983237.198;300;24.01;42180.54
1739983237.248;300;24.01;42180.54
1739983237.297;300;24.01;42180.54
1739983237.347;300;22.87;39745.60
1739983237.398;300;22.87;39745.60
1739983237.448;300;25.32;44972.13
1739983237.498;300;25.32;44972.13
1739983237.549;300;25.32;44972.13
1739983237.599;300;25.08;44472.93
1739983237.648;300;25.08;44472.93
1739983237.698;300;25.08;44472.93
1739983237.748;300;23.54;41172.67
1739983237.798;300;23.54;41172.67
1739983237.848;300;25.13;44567.73
1739983237.898;300;25.13;44567.73
1739983237.948;300;25.13;44567.73
1739983237.999;300;23.99;42139.46
1739983238.049;300;23.99;42139.46
1739983238.099;300;23.99;42139.46
1739983238.149;300;23.01;40037.87
1739983238.199;300;23.01;40037.87
1739983238.249;300;25.20;44724.13
1739983238.299;300;23.78;41699.27
1739983238.349;300;23.78;41699.27
1739983238.399;300;24.77;43813.33
1739983238.449;300;21.46;36737.07
1739983238.500;300;21.46;36737.07
1739983238.549;300;25.30;44943.20
1739983238.600;300;25.30;44943.20
1739983238.650;300;23.96;42078.40
1739983238.700;300;22.37;38690.27
1739983238.750;300;22.37;38690.27
1739983238.800;300;24.86;43988.54
1739983238.850;300;22.64;39252.67
1739983238.900;300;22.64;39252.67
1739983238.950;300;23.87;41882.13
1739983239.001;300;23.87;41882.13
1739983239.050;300;23.87;41882.13
1739983239.100;300;25.03;44367.07
1739983239.151;300;25.03;44367.07
1739983239.200;300;25.03;44367.07
1739983248.964;300;21.94;37774.67
1739983249.014;300;21.94;37774.67
1739983249.364;300;22.29;38508.13
1739983249.414;300;22.29;38508.13
1739983249.464;300;22.29;38508.13
1739983249.514;300;21.88;37639.20
1739983249.564;300;21.88;37639.20
1739983249.615;300;21.91;37706.27
1739983249.664;300;23.46;41008.00
1739983249.715;300;23.46;41008.00
1739983249.765;300;24.66;43574.87
1739983249.815;300;24.66;43574.87
1739983249.865;300;24.66;43574.87
1739983249.915;300;24.57;43380.93
1739983249.965;300;24.57;43380.93
1739983250.015;300;22.12;38158.93
1739983250.065;300;22.37;38684.80
1739983250.115;300;22.37;38684.80
1739983250.165;300;23.91;41960.00
1739983250.215;300;23.91;41960.00
1739983250.265;300;23.91;41960.00
1739983250.315;300;24.34;42889.20
1739983250.365;300;24.34;42889.20
1739983250.415;300;21.93;37734.40
1739983250.465;300;21.93;37734.40
1739983250.515;300;21.93;37734.40
1739983250.565;300;23.84;41824.27
1739983250.615;300;24.16;42509.07
1739983250.665;300;24.16;42509.07
1739983250.715;300;21.68;37217.33
1739983250.765;300;21.76;37383.73
1739983250.815;300;21.76;37383.73
1739983250.865;300;24.11;42405.20
1739983250.915;300;24.11;42405.20
1739983250.965;300;24.40;43010.27
1739983251.015;300;25.24;44812.80
1739983251.065;300;25.24;44812.80
1739983251.166;300;22.75;39491.46
1739983251.215;300;22.75;39491.46
1739983251.265;300;23.82;41779.00
1739983251.315;300;23.82;41779.00
1739983251.516;300;22.40;38745.60
1739983251.565;300;22.36;38660.60
1739983251.615;300;22.36;38660.60
1739983251.665;300;22.15;38221.73
1739983251.715;300;22.15;38221.73
1739983251.765;300;25.24;44812.67
1739983251.815;300;22.37;38689.60
1739983251.865;300;22.37;38689.60
1739983251.915;300;22.37;38689.60
1739983251.965;300;24.39;42987.87
1739983252.015;300;24.39;42987.87
1739983252.065;300;21.36;36523.46
1739983252.115;300;21.36;36523.46
1739983252.165;300;21.36;36523.46
1739983252.366;300;23.38;40847.07
1739983252.415;300;23.38;40847.07
1739983252.466;300;24.76;43781.33
1739983252.516;300;24.76;43781.33
1739983252.565;300;24.76;43781.33
1739983252.616;300;25.45;45266.40
1739983252.666;300;25.45;45266.40
1739983252.716;300;25.45;45266.40
1739983252.766;300;25.27;44864.40
1739983252.816;300;25.27;44864.40
1739983252.866;300;23.75;41622.93
1739983252.916;300;23.75;41622.93
1739983252.966;300;22.55;39073.07
1739983253.016;300;23.24;40546.27
1739983253.066;300;23.24;40546.27
1739983253.116;300;23.24;40546.27
1739983253.166;300;24.84;43961.07
1739983253.216;300;24.84;43961.07
1739983253.267;300;25.56;45494.40
1739983253.316;300;23.49;41072.40
1739983253.368;300;23.49;41072.40
1739983253.417;300;23.25;40565.67
1739983253.668;300;21.99;37874.40
1739983253.717;300;22.08;38053.93
1739983253.767;300;22.08;38053.93
1739983253.817;300;25.10;44509.40
1739983253.867;300;21.75;37367.07
1739983253.917;300;21.75;37367.07
