UnixTimestamp;Microseconds;MilliAmpere;BaseValue
1724666336.973;200;50.00
1724666337.021;200;50.00
1724666337.071;200;50.00
1724666337.121;200;50.00
1724666337.171;200;50.00
1724666337.222;200;50.00
1724666337.271;200;50.00
1724666337.321;200;50.00
1724666337.371;200;50.00
1724666337.422;200;50.00
1724666337.471;200;50.00
1724666337.521;200;50.00
1724666337.572;200;50.00
1724666337.621;200;50.00
1724666337.671;200;50.00
1724666337.721;200;50.00
1724666337.772;200;50.00
1724666337.821;200;50.00
1724666337.872;200;50.00
1724666337.922;200;50.00
1724666337.971;200;50.00
1724666338.023;200;50.00
1724666338.073;200;50.00
1724666338.123;200;50.00
1724666338.173;200;50.00
1724666338.222;200;50.00
1724666340.628;100;15.00
1724666340.678;100;15.00
1724666340.729;100;15.00
1724666340.779;100;15.00
1724666340.830;100;15.00
1724666340.881;100;15.00
1724666340.931;100;15.00
1724666340.981;100;15.00
1724666341.032;100;15.00
1724666341.082;100;15.00
1724666341.132;100;15.00
1724666341.182;100;15.00
1724666341.232;100;15.00
1724666341.281;100;15.00
1724666376.866;300;50.00;56273.40
1724666376.916;300;50.00;56273.40
1724666376.966;300;48.41;53783.07
1724666377.017;300;48.41;53783.07
1724666377.067;300;47.93;53021.87
1724666377.116;300;49.21;55037.54
1724666377.167;300;49.50;55486.67
1724666377.217;300;49.50;55486.67
1724666377.267;300;49.50;55486.67
1724666377.318;300;50.00;56273.40
1724666377.368;300;47.84;52885.27
1724666377.417;300;47.84;52885.27
1724666377.468;300;47.84;52885.27
1724666377.518;300;49.25;55090.87
1724666377.568;300;47.38;52173.33
1724666377.617;300;49.25;55095.00
1724666377.668;300;49.25;55095.00
1724666377.719;300;50.00;56273.40
1724666377.768;300;50.00;56273.40
1724666377.818;300;50.00;56273.40
1724666377.868;300;50.00;56273.40
1724666377.919;300;49.03;54753.73
1724666377.968;300;48.01;53148.27
1724666378.018;300;48.01;53148.27
1724666378.068;300;48.01;53148.27
1724666378.119;300;48.01;53148.27
1724666378.168;300;50.00;56272.27
1724666378.219;300;50.00;56272.27
1724666378.269;300;50.00;56272.27
1724666378.320;300;48.64;54146.73
1724666378.369;300;50.00;56273.40
1724666378.420;300;50.00;56273.40
1724666378.469;300;49.60;55642.20
1724666378.520;300;50.00;56273.40
1724666378.571;300;50.00;56273.40
1724666378.621;300;50.00;56273.40
1724666378.671;300;48.29;53598.87
1724666378.721;300;47.56;52451.73
1724666378.771;300;49.09;54853.07
1724666378.821;300;49.09;54853.07
1724666378.871;300;49.09;54853.07
1724666378.921;300;46.25;50395.93
1724666378.972;300;50.00;56273.40
1724666379.022;300;50.00;56273.40
1724666379.072;300;50.00;56273.40
1724666379.122;300;50.00;56273.40
1724666379.172;300;50.00;35756.54
1724666379.322;300;38.65;38480.54
1724666379.372;300;45.97;49964.33
1724666379.422;300;45.97;49964.33
1724666379.472;300;45.97;49964.33
1724666379.522;300;45.97;33056.33
1724666379.722;300;46.81;51267.73
1724666379.772;300;50.00;56273.40
1724666379.822;300;50.00;56273.40
1724666379.872;300;50.00;56273.40
1724666379.923;300;50.00;56273.40
1724666379.972;300;49.71;55816.60
1724666380.024;300;49.71;55816.60
1724666380.074;300;49.71;55816.60
1724666380.124;300;49.71;35607.46
1724666380.174;300;41.43;42843.46
1724666380.224;300;41.43;42843.46
1724666380.273;300;41.43;42843.46
1724666380.323;300;43.53;46141.73
1724666380.373;300;48.27;53558.20
1724666380.423;300;48.27;53558.20
1724666380.477;300;48.27;53558.20
1724666380.525;300;48.27;34218.67
1724666380.574;300;50.00;56273.40
1724666380.624;300;50.00;56273.40
1724666380.674;300;50.00;56273.40
1724666380.724;300;48.38;53735.27
1724666380.774;300;38.57;38357.93
1724666380.824;300;38.57;38357.93
1724666380.875;300;38.57;38357.93
1724666380.926;300;38.57;34454.33
1724666380.975;300;49.03;54749.87
1724666381.025;300;49.03;54749.87
1724666381.076;300;49.03;54749.87
1724666381.126;300;48.15;53369.54
1724666381.176;300;47.29;52034.07
1724666381.225;300;47.29;52034.07
1724666381.276;300;47.29;52034.07
1724666381.326;300;49.81;55973.93
1724666381.375;300;49.45;55404.40
1724666381.426;300;49.45;55404.40
1724666381.475;300;49.45;55404.40
1724666381.526;300;49.75;55887.27
1724666381.576;300;48.92;54579.87
1724666381.626;300;48.92;54579.87
1724666381.676;300;48.92;54579.87
1724666381.726;300;48.94;54605.73
1724666381.777;300;48.87;54499.13
1724666381.827;300;48.87;54499.13
1724666381.877;300;48.87;54499.13
1724666381.927;300;48.31;53632.07
1724666381.977;300;47.33;52097.07
1724666382.027;300;47.33;52097.07
1724666382.077;300;47.33;52097.07
1724666382.127;300;47.33;52097.07
1724666382.177;300;48.13;53345.40
1724666382.228;300;50.00;56273.40
1724666382.278;300;48.77;54348.00
1724666382.328;300;48.77;54348.00
1724666382.378;300;48.77;54348.00
1724666382.428;300;50.00;56273.40
1724666382.478;300;48.83;54442.60
1724666382.528;300;48.83;54442.60
1724666382.578;300;48.83;54442.60
1724666382.628;300;48.84;54456.87
1724666382.678;300;45.24;48811.40
1724666382.728;300;44.05;46952.33
1724666382.778;300;44.05;46952.33
1724666382.829;300;44.05;46952.33
1724666382.880;300;49.95;56193.00
1724666382.935;300;49.00;54703.27
1724666396.275;300;50.00;56273.40
1724666396.325;300;50.00;56273.40
1724666396.375;300;48.35;53682.73
1724666396.424;300;48.35;53682.73
1724666396.474;300;48.35;53682.73
1724666396.525;300;48.65;54165.60
1724666396.575;300;50.00;56273.40
1724666396.625;300;50.00;56273.40
1724666396.675;300;50.00;56273.40
1724666396.725;300;47.75;52745.60
1724666396.775;300;49.92;56155.87
1724666396.825;300;48.98;54670.27
1724666396.875;300;48.98;54670.27
1724666396.925;300;48.98;54670.27
1724666396.974;300;48.59;54056.46
1724666397.025;300;48.98;54675.33
1724666397.075;300;48.48;53894.80
1724666397.125;300;48.48;53894.80
1724666397.175;300;48.48;53894.80
1724666397.225;300;48.48;53894.80
1724666397.275;300;49.65;55718.93
1724666397.326;300;50.00;56273.40
1724666397.376;300;47.70;52667.67
1724666397.426;300;47.70;52667.67
1724666397.476;300;47.70;52667.67
1724666397.527;300;48.56;54011.54
1724666397.576;300;48.07;53242.67
1724666397.627;300;48.07;53242.67
1724666397.676;300;48.07;53242.67
1724666397.726;300;48.99;54686.40
1724666397.778;300;48.17;53400.93
1724666397.828;300;48.17;53400.93
1724666397.878;300;48.17;53400.93
1724666397.929;300;50.00;56273.40
1724666397.978;300;50.00;56273.40
1724666398.029;300;50.00;56273.40
1724666398.078;300;50.00;56273.40
1724666398.129;300;49.44;55390.60
1724666398.178;300;50.00;56273.40
1724666398.228;300;50.00;56273.40
1724666398.278;300;50.00;56273.40
1724666398.328;300;48.11;53317.73
1724666398.378;300;50.00;56273.40
1724666398.429;300;50.00;56273.40
1724666398.478;300;50.00;56273.40
1724666398.530;300;49.03;54745.67
1724666398.579;300;49.21;55042.33
1724666398.630;300;49.21;55042.33
1724666398.680;300;49.21;55042.33
1724666398.729;300;50.00;56273.40
1724666398.780;300;47.89;52973.93
1724666398.830;300;50.00;56273.40
1724666398.880;300;50.00;56273.40
1724666398.931;300;50.00;56273.40
1724666398.981;300;49.46;55429.93
1724666399.031;300;50.00;56273.40
1724666399.081;300;50.00;56273.40
1724666399.131;300;50.00;56273.40
1724666399.182;300;49.49;55469.07
1724666399.232;300;50.00;56273.40
1724666399.283;300;50.00;56273.40
1724666399.332;300;48.35;53689.33
1724666399.382;300;50.00;56273.40
1724666399.432;300;50.00;56273.40
1724666399.483;300;50.00;56273.40
1724666399.533;300;48.02;53171.33
1724666399.583;300;49.96;56211.46
1724666399.633;300;50.00;56273.40
1724666399.682;300;50.00;56273.40
1724666399.734;300;50.00;56273.40
1724666399.783;300;48.52;53960.93
1724666399.834;300;50.00;56273.40
1724666399.884;300;50.00;56273.40
1724666399.933;300;50.00;56273.40
1724666399.984;300;48.78;54356.40
1724666400.034;300;46.37;50585.46
1724666400.083;300;46.37;50585.46
1724666400.134;300;46.37;50585.46
1724666400.184;300;50.00;56273.40
1724666400.234;300;50.00;56273.40
1724666400.283;300;50.00;56273.40
1724666400.334;300;50.00;56273.40
1724666400.384;300;50.00;56273.40
1724666400.434;300;50.00;56273.40
1724666400.484;300;50.00;56273.40
1724666400.534;300;45.55;49307.07
1724666400.584;300;48.68;54197.93
1724666400.634;300;48.68;54197.93
1724666400.685;300;48.68;54197.93
1724666400.736;300;48.71;54258.00
1724666400.785;300;50.00;56273.40
1724666400.835;300;50.00;56273.40
1724666400.887;300;50.00;56273.40
1724666400.936;300;49.41;55341.07
1724666400.986;300;48.08;53268.73
1724666401.036;300;48.08;53268.73
1724666401.086;300;48.08;53268.73
1724666401.137;300;48.79;54384.00
1724666401.186;300;50.00;56273.40
1724666401.237;300;50.00;56273.40
1724666401.286;300;50.00;56273.40
1724666401.337;300;48.70;54232.13
1724666401.386;300;50.00;56273.40
1724666401.437;300;49.36;55262.87
1724666401.487;300;49.36;55262.87
1724666401.537;300;49.94;56182.93
1724666401.587;300;48.24;53516.73
1724666401.637;300;48.65;54150.13
1724666401.687;300;48.65;54150.13
1724666401.737;300;48.65;54150.13
1724666401.787;300;50.00;56273.40
1724666401.837;300;48.95;54622.07
1724666401.887;300;48.95;54622.07
1724666401.937;300;48.95;54622.07
1724666401.986;300;50.00;56273.40
1724666402.037;300;48.92;54588.40
1724666402.088;300;48.92;54588.40
1724666402.138;300;48.92;54588.40
1724666402.187;300;50.00;56273.40
1724666402.237;300;48.13;53348.93
1724666402.287;300;48.13;53348.93
1724666402.338;300;48.13;53348.93
1724666402.389;300;48.13;53348.93
1724666402.440;300;49.73;55845.40
1724666402.489;300;50.00;56273.40
1724666415.278;300;50.00;56273.40
1724666415.328;300;48.88;54520.13
1724666415.378;300;49.99;56262.33
1724666415.428;300;47.77;52786.07
1724666415.478;300;47.77;52786.07
1724666415.528;300;47.77;52786.07
1724666415.578;300;50.00;56273.40
1724666415.629;300;49.17;54968.46
1724666415.679;300;49.70;55808.80
1724666415.729;300;49.70;55808.80
1724666415.780;300;49.70;55808.80
1724666415.830;300;48.67;54181.87
1724666415.880;300;48.09;53272.87
1724666415.929;300;49.00;54708.27
1724666415.979;300;49.00;54708.27
1724666416.029;300;49.00;54708.27
1724666416.080;300;50.00;56273.40
1724666416.129;300;48.38;53734.33
1724666416.179;300;50.00;56273.40
1724666416.229;300;50.00;56273.40
1724666416.280;300;50.00;56273.40
1724666416.330;300;47.02;51603.00
1724666416.380;300;47.64;52579.20
1724666416.429;300;47.81;52847.87
1724666416.480;300;47.81;52847.87
1724666416.530;300;47.81;52847.87
1724666416.581;300;49.26;55111.20
1724666416.631;300;50.00;56273.40
1724666416.681;300;50.00;56273.40
1724666416.731;300;50.00;56273.40
1724666416.781;300;48.17;53411.93
1724666416.831;300;49.43;55374.73
1724666416.881;300;47.75;52752.73
1724666416.932;300;47.75;52752.73
1724666416.982;300;47.75;52752.73
1724666417.032;300;48.64;54137.20
1724666417.083;300;50.00;56273.40
1724666417.132;300;49.48;55466.27
1724666417.183;300;49.48;55466.27
1724666417.232;300;49.48;55466.27
1724666417.283;300;50.00;56273.40
1724666417.332;300;44.73;48009.67
1724666417.383;300;49.14;54922.20
1724666417.433;300;49.14;54922.20
1724666417.484;300;49.14;54922.20
1724666417.534;300;50.00;56273.40
1724666417.583;300;50.00;56273.40
1724666417.633;300;50.00;33463.73
1724666417.984;300;47.39;52181.40
1724666418.034;300;49.19;55010.07
1724666418.083;300;42.85;45061.60
1724666418.134;300;42.85;45061.60
1724666418.184;300;42.85;45061.60
1724666418.234;300;50.00;56273.40
1724666418.284;300;50.00;56273.40
1724666418.333;300;50.00;56273.40
1724666418.384;300;50.00;56273.40
1724666418.435;300;50.00;56273.40
1724666418.485;300;50.00;56273.40
1724666418.535;300;49.69;55793.20
1724666418.585;300;49.69;55793.20
1724666418.635;300;49.69;55793.20
1724666418.685;300;48.37;53726.80
1724666418.735;300;48.80;54389.67
1724666418.785;300;50.00;56273.40
1724666418.835;300;50.00;56273.40
1724666418.885;300;50.00;56273.40
1724666418.935;300;50.00;56273.40
1724666418.985;300;48.74;54304.60
1724666419.035;300;50.00;56273.40
1724666419.086;300;50.00;56273.40
1724666419.136;300;50.00;56273.40
1724666419.186;300;48.07;53254.93
1724666419.236;300;50.00;56273.40
1724666419.286;300;50.00;56273.40
1724666419.336;300;50.00;56273.40
1724666419.387;300;49.14;54931.80
1724666419.437;300;50.00;56273.40
1724666419.487;300;50.00;56273.40
1724666419.537;300;49.44;55401.00
1724666419.587;300;49.44;55401.00
1724666419.636;300;49.44;55401.00
1724666419.686;300;50.00;56273.40
1724666419.737;300;48.68;54200.40
1724666419.788;300;48.67;54193.54
1724666419.837;300;48.67;54193.54
1724666419.888;300;48.67;54193.54
1724666419.938;300;49.40;55328.73
1724666419.989;300;50.00;56273.40
1724666420.038;300;47.78;52801.73
1724666420.089;300;47.78;52801.73
1724666420.140;300;47.78;52801.73
1724666420.189;300;50.00;56273.40
1724666420.241;300;47.51;52375.07
1724666420.291;300;47.51;52375.07
1724666420.341;300;47.51;52375.07
1724666420.391;300;50.00;56273.40
1724666420.440;300;50.00;56273.40
1724666420.491;300;50.00;56273.40
1724666420.541;300;50.00;56273.40
1724666420.591;300;49.93;56159.13
1724666420.641;300;50.00;56273.40
1724666420.697;300;48.51;53934.87
1724666420.743;300;48.51;53934.87
1724666420.793;300;48.51;53934.87
1724666420.844;300;50.00;56273.40
1724666420.895;300;48.25;53526.54
1724666420.944;300;50.00;56273.40
1724666420.994;300;50.00;56273.40
1724666421.044;300;50.00;56273.40
1724666421.095;300;49.67;55750.20
1724666421.144;300;50.00;56273.40
1724666421.195;300;50.00;56273.40
1724666421.244;300;50.00;56273.40
1724666421.294;300;50.00;56273.40
1724666421.344;300;50.00;56273.40
1724666421.394;300;48.75;54312.87
1724666421.445;300;49.82;55987.60
1724666421.495;300;49.82;55987.60
1724666421.545;300;49.19;55000.87
1724666421.595;300;48.16;53387.67
1724666421.645;300;50.00;56273.40
1724666421.696;300;50.00;56273.40
1724666421.745;300;49.00;54701.13
1724666421.796;300;48.21;53465.80
1724666421.846;300;48.49;53905.27
1724666421.895;300;48.49;53905.27
1724666421.945;300;48.49;53905.27
1724666421.996;300;50.00;56273.40
1724666422.046;300;49.04;54763.40
1724666422.096;300;49.92;56141.13
1724666422.146;300;49.92;56141.13
1724666422.197;300;49.92;56141.13
1724666422.248;300;47.84;52885.67
1724666422.298;300;49.96;56213.00
1724666481.267;100;40.00;56273.40
1724666481.318;97;40.00;54186.33
1724666481.368;100;40.00;56273.40
1724666481.418;100;40.00;56273.40
1724666481.469;100;40.00;56273.40
1724666481.519;100;40.00;56273.40
1724666481.569;96;40.00;53927.67
1724666481.619;98;40.00;55285.13
1724666481.669;98;40.00;55285.13
1724666481.719;98;40.00;55285.13
1724666481.769;100;40.00;56273.40
1724666481.820;100;40.00;56273.40
1724666481.870;100;40.00;56273.40
1724666481.919;100;40.00;56273.40
1724666481.970;100;40.00;56273.40
1724666482.020;100;40.00;56273.40
1724666482.070;100;40.00;56273.40
1724666482.119;100;40.00;56273.40
1724666482.170;100;40.00;56273.40
1724666482.220;98;40.00;55339.40
1724666482.270;98;40.00;55339.40
1724666482.320;98;40.00;55339.40
1724666482.370;98;40.00;55339.40
1724666482.420;100;40.00;56273.40
1724666482.470;100;40.00;56273.40
1724666482.520;100;40.00;56273.40
1724666482.570;100;40.00;56273.40
1724666482.620;100;40.00;56273.40
1724666482.670;97;40.00;54043.33
1724666482.720;96;40.00;53995.20
1724666482.770;96;40.00;53995.20
1724666482.820;96;40.00;53995.20
1724666482.870;96;40.00;53995.20
1724666482.920;100;40.00;56273.40
1724666482.970;99;40.00;55796.33
1724666483.020;99;40.00;55552.40
1724666483.070;99;40.00;55552.40
1724666483.120;99;40.00;55552.40
1724666483.170;100;40.00;56273.40
1724666483.220;97;40.00;54282.54
1724666483.270;99;40.00;55713.40
1724666483.320;96;40.00;53769.27
1724666483.371;96;40.00;53769.27
1724666483.421;96;40.00;53769.27
1724666483.471;100;40.00;56273.40
1724666483.521;99;40.00;56256.73
1724666483.571;96;40.00;53639.00
1724666483.621;96;40.00;53639.00
1724666483.672;96;40.00;53639.00
1724666483.721;100;40.00;56273.40
1724666483.771;96;40.00;53365.93
1724666483.821;99;40.00;55516.73
1724666483.871;99;40.00;55516.73
1724666483.922;99;40.00;55516.73
1724666483.972;100;40.00;56273.40
1724666484.022;100;40.00;56273.40
1724666484.072;98;40.00;55052.27
1724666484.123;98;40.00;55052.27
1724666484.172;98;40.00;55052.27
1724666484.223;98;40.00;54918.00
1724666484.274;100;40.00;56273.40
1724666484.323;100;40.00;56273.40
1724666484.373;100;40.00;56273.40
1724666484.423;100;40.00;56273.40
1724666484.474;100;40.00;56273.40
1724666484.524;99;40.00;56231.27
1724666484.574;100;40.00;56273.40
1724666484.624;98;40.00;55488.54
1724666484.674;98;40.00;55488.54
1724666484.724;98;40.00;55488.54
1724666484.774;97;40.00;54303.46
1724666484.823;97;40.00;54050.13
1724666484.874;98;40.00;55140.46
1724666484.923;98;40.00;55140.46
1724666484.973;98;40.00;55140.46
1724666485.024;97;40.00;54256.46
1724666485.073;100;40.00;56273.40
1724666485.123;100;40.00;56273.40
1724666485.173;100;40.00;56273.40
1724666485.224;96;40.00;53313.07
1724666485.274;100;40.00;56273.40
1724666485.325;98;40.00;55111.00
1724666485.375;98;40.00;55111.00
1724666485.425;98;40.00;55111.00
1724666485.476;97;40.00;54274.93
1724666485.526;98;40.00;55056.20
1724666485.576;96;40.00;53846.07
1724666485.625;96;40.00;53846.07
1724666485.676;96;40.00;53846.07
1724666485.725;99;40.00;56000.40
1724666485.776;100;40.00;56273.40
1724666485.827;100;40.00;56273.40
1724666485.877;100;40.00;56273.40
1724666485.927;100;40.00;56273.40
1724666485.977;97;40.00;54317.93
1724666486.027;100;40.00;56273.40
1724666486.078;100;40.00;56273.40
1724666486.128;100;40.00;56273.40
1724666486.177;97;40.00;54444.07
1724666486.227;95;40.00;52794.00
1724666486.277;95;40.00;52794.00
1724666486.327;95;40.00;52794.00
1724666486.377;95;40.00;52794.00
1724666486.428;96;40.00;53715.07
1724666486.477;96;40.00;53648.87
1724666486.528;96;40.00;53648.87
1724666486.578;96;40.00;53648.87
1724666486.628;94;40.00;52447.13
1724666486.677;98;40.00;55339.80
1724666486.729;96;40.00;53900.27
1724666486.779;98;40.00;54866.46
1724666486.829;98;40.00;54866.46
1724666486.879;98;40.00;54866.46
1724666486.929;99;40.00;55595.87
1724666486.979;100;40.00;56273.40
1724666487.031;100;40.00;56273.40
1724666487.081;96;40.00;53668.00
1724666487.130;96;40.00;53668.00
1724666487.181;96;40.00;53668.00
1724666487.231;96;40.00;53714.40
1724666487.280;97;40.00;54710.27
1724666487.331;100;40.00;56273.40
1724666487.381;98;40.00;54898.60
1724666487.431;98;40.00;54898.60
1724666487.481;98;40.00;54898.60
1724666487.531;100;40.00;56273.40
1724666487.582;95;40.00;53030.20
1724666487.633;99;40.00;56246.40
1724666487.682;99;40.00;56246.40
1724666487.733;100;40.00;56273.40
1724666487.784;100;40.00;56273.40
1724666487.838;100;40.00;56273.40
1724666487.884;100;40.00;56273.40
1724666487.934;100;40.00;56273.40
1724666487.984;100;40.00;56273.40
1724666488.034;98;40.00;55310.07
1724666488.085;100;40.00;56273.40
1724666488.134;100;40.00;56273.40
1724666488.185;100;40.00;56273.40
1724666488.234;100;40.00;56273.40
1724666488.285;100;40.00;56273.40
1724666488.335;97;40.00;54455.07
1724666488.385;100;40.00;56273.40
1724666488.435;99;40.00;55756.07
1724666488.485;99;40.00;55756.07
1724666488.536;99;40.00;55756.07
1724666488.586;96;40.00;53588.67
1724666488.635;100;40.00;56273.40
1724666502.720;100;40.00;56273.40
1724666502.770;100;40.00;56273.40
1724666502.819;95;40.00;52950.60
1724666502.870;96;40.00;53862.40
1724666502.921;96;40.00;53862.40
1724666502.970;96;40.00;53862.40
1724666503.020;98;40.00;55303.27
1724666503.070;100;40.00;56273.40
1724666503.120;100;40.00;56273.40
1724666503.171;100;40.00;56273.40
1724666503.221;100;40.00;56273.40
1724666503.271;100;40.00;56273.40
1724666503.323;100;40.00;56273.40
1724666503.372;100;40.00;56273.40
1724666503.423;100;40.00;56273.40
1724666503.473;100;40.00;56273.40
1724666503.523;96;40.00;53835.80
1724666503.573;100;40.00;56273.40
1724666503.624;96;40.00;53670.00
1724666503.673;96;40.00;53670.00
1724666503.723;96;40.00;53670.00
1724666503.773;96;40.00;53251.00
1724666503.823;96;40.00;53288.87
1724666503.873;100;40.00;56273.40
1724666503.925;100;40.00;56273.40
1724666503.975;100;40.00;56273.40
1724666504.025;98;40.00;54812.80
1724666504.074;100;40.00;56273.40
1724666504.125;96;40.00;53750.67
1724666504.176;96;40.00;53750.67
1724666504.226;96;40.00;53750.67
1724666504.276;96;40.00;53906.54
1724666504.326;99;40.00;56066.00
1724666504.377;100;40.00;56273.40
1724666504.427;100;40.00;56273.40
1724666504.477;100;40.00;56273.40
1724666504.526;100;40.00;56273.40
1724666504.577;100;40.00;56273.40
1724666504.627;100;40.00;56273.40
1724666504.677;100;40.00;56273.40
1724666504.727;100;40.00;56273.40
1724666504.777;99;40.00;55860.40
1724666504.827;100;40.00;56273.40
1724666504.878;96;40.00;53596.73
1724666504.927;96;40.00;53596.73
1724666504.977;96;40.00;53596.73
1724666505.027;100;40.00;56273.40
1724666505.078;100;40.00;56273.40
1724666505.128;98;40.00;55200.67
1724666505.178;98;40.00;55200.67
1724666505.228;98;40.00;55200.67
1724666505.278;100;40.00;56273.40
1724666505.328;99;40.00;56266.27
1724666505.378;99;40.00;56017.46
1724666505.428;99;40.00;56017.46
1724666505.479;99;40.00;56017.46
1724666505.529;100;40.00;56273.40
1724666505.579;99;40.00;55543.67
1724666505.630;99;40.00;55543.67
1724666505.680;99;40.00;55543.67
1724666505.729;97;40.00;54694.73
1724666505.780;99;40.00;55826.54
1724666505.830;99;40.00;55826.54
1724666505.879;99;40.00;55826.54
1724666505.929;99;40.00;55826.54
1724666505.980;98;40.00;55446.33
1724666506.030;100;40.00;56273.40
1724666506.081;100;40.00;56273.40
1724666506.130;100;40.00;56273.40
1724666506.183;100;40.00;56273.40
1724666506.230;99;40.00;56096.73
1724666506.281;100;40.00;56273.40
1724666506.332;95;40.00;53072.87
1724666506.381;95;40.00;53072.87
1724666506.431;95;40.00;53072.87
1724666506.481;100;40.00;56273.40
1724666506.531;99;40.00;56249.33
1724666506.581;100;40.00;56273.40
1724666506.632;100;40.00;56273.40
1724666506.681;100;40.00;56273.40
1724666506.732;100;40.00;56273.40
1724666506.781;97;40.00;54330.20
1724666506.831;97;40.00;54330.20
1724666506.881;97;40.00;54330.20
1724666506.931;100;40.00;56273.40
1724666506.981;100;40.00;56273.40
1724666507.031;100;40.00;56273.40
1724666507.082;100;40.00;56273.40
1724666507.132;100;40.00;56273.40
1724666507.181;100;40.00;56273.40
1724666507.231;100;40.00;56273.40
1724666507.283;97;40.00;54080.40
1724666507.332;97;40.00;54080.40
1724666507.383;97;40.00;54080.40
1724666507.433;98;40.00;54888.33
1724666507.482;95;40.00;53015.00
1724666507.532;95;40.00;53015.00
1724666507.583;95;40.00;53015.00
1724666507.632;99;40.00;55517.54
1724666507.683;97;40.00;54200.67
1724666507.733;97;40.00;54200.67
1724666507.783;97;40.00;54200.67
1724666507.832;100;40.00;56273.40
1724666507.883;100;40.00;56273.40
1724666507.932;100;40.00;56273.40
1724666507.983;100;40.00;56273.40
1724666508.032;100;40.00;56273.40
1724666508.083;98;40.00;55487.07
1724666508.133;100;40.00;56273.40
1724666508.183;100;40.00;56273.40
1724666508.232;100;40.00;56273.40
1724666508.283;100;40.00;56273.40
1724666508.333;96;40.00;53677.87
1724666508.383;99;40.00;55718.13
1724666508.433;100;40.00;56273.40
1724666508.483;100;40.00;56273.40
1724666508.533;100;40.00;56273.40
1724666508.583;100;40.00;56273.40
1724666508.632;100;40.00;56273.40
1724666508.683;99;40.00;56183.73
1724666508.732;99;40.00;56183.73
1724666508.783;99;40.00;56183.73
1724666508.832;100;40.00;56273.40
1724666508.883;100;40.00;56273.40
1724666508.932;100;40.00;56273.40
1724666508.983;100;40.00;56273.40
1724666509.032;100;40.00;56273.40
1724666509.083;99;40.00;56060.27
1724666509.132;99;40.00;56060.27
1724666509.183;99;40.00;56060.27
1724666509.232;100;40.00;56273.40
1724666509.283;95;40.00;52777.87
1724666509.334;98;40.00;54817.67
1724666509.383;98;40.00;54817.67
1724666509.434;98;40.00;54817.67
1724666509.483;100;40.00;56273.40
1724666509.534;100;40.00;56273.40
1724666509.583;100;40.00;56273.40
1724666509.634;98;40.00;55039.46
1724666509.684;98;40.00;55039.46
1724666509.733;98;40.00;55039.46
1724666509.783;100;40.00;56273.40
1724666509.834;96;40.00;53678.54
1724666523.618;100;40.00;56273.40
1724666523.667;98;40.00;55197.93
1724666523.718;97;40.00;54276.20
1724666523.767;99;40.00;56058.93
1724666523.818;99;40.00;56058.93
1724666523.868;99;40.00;56058.93
1724666523.918;98;40.00;54970.54
1724666523.968;97;40.00;54071.60
1724666524.018;97;40.00;54071.60
1724666524.068;97;40.00;54071.60
1724666524.117;100;40.00;56273.40
1724666524.168;100;40.00;56273.40
1724666524.219;100;40.00;56273.40
1724666524.269;100;40.00;56273.40
1724666524.318;98;40.00;55038.87
1724666524.369;96;40.00;53646.80
1724666524.419;100;40.00;56273.40
1724666524.469;100;40.00;56273.40
1724666524.519;100;40.00;56273.40
1724666524.568;100;40.00;56273.40
1724666524.620;100;40.00;56273.40
1724666524.670;100;40.00;56273.40
1724666524.720;100;40.00;56273.40
1724666524.770;96;40.00;53622.00
1724666524.819;100;40.00;56273.40
1724666524.870;97;40.00;54534.87
1724666524.920;99;40.00;55818.73
1724666524.970;99;40.00;55818.73
1724666525.020;99;40.00;55818.73
1724666525.070;98;40.00;55514.33
1724666525.129;100;40.00;56273.40
1724666525.173;100;40.00;56273.40
1724666525.222;100;40.00;56273.40
1724666525.273;96;40.00;53630.80
1724666525.323;96;40.00;53630.80
1724666525.373;96;40.00;53630.80
1724666525.424;97;40.00;54533.20
1724666525.473;100;40.00;56273.40
1724666525.523;97;40.00;54548.13
1724666525.574;97;40.00;54548.13
1724666525.624;97;40.00;54548.13
1724666525.674;98;40.00;54877.80
1724666525.724;98;40.00;55382.67
1724666525.774;98;40.00;54909.27
1724666525.825;97;40.00;54494.20
1724666525.875;97;40.00;54494.20
1724666525.925;97;40.00;54494.20
1724666525.975;97;40.00;54494.20
1724666526.024;99;40.00;55662.67
1724666526.075;99;40.00;56222.27
1724666526.125;98;40.00;54932.67
1724666526.175;98;40.00;54932.67
1724666526.226;98;40.00;54932.67
1724666526.276;96;40.00;53271.27
1724666526.325;97;40.00;54100.33
1724666526.375;100;40.00;56273.40
1724666526.426;100;40.00;56273.40
1724666526.476;100;40.00;56273.40
1724666526.525;98;40.00;55453.93
1724666526.575;99;40.00;56110.33
1724666526.625;99;40.00;56110.33
1724666526.676;99;40.00;56110.33
1724666526.726;100;40.00;56273.40
1724666526.776;95;40.00;53189.27
1724666526.827;95;40.00;53189.27
1724666526.876;95;40.00;53189.27
1724666526.927;95;40.00;53189.27
1724666526.978;97;40.00;54130.73
1724666527.028;94;40.00;52352.33
1724666527.078;99;40.00;55694.00
1724666527.128;99;40.00;55694.00
1724666527.178;99;40.00;55694.00
1724666527.228;97;40.00;54042.40
1724666527.278;97;40.00;54722.13
1724666527.328;97;40.00;54722.13
1724666527.378;97;40.00;54722.13
1724666527.428;99;40.00;55904.87
1724666527.479;100;40.00;56273.40
1724666527.528;98;40.00;55311.67
1724666527.579;98;40.00;55311.67
1724666527.629;98;40.00;55311.67
1724666527.678;100;40.00;56273.40
1724666527.728;100;40.00;56273.40
1724666527.780;97;40.00;54459.40
1724666527.830;97;40.00;54459.40
1724666527.879;97;40.00;54459.40
1724666527.929;98;40.00;55006.00
1724666527.980;99;40.00;56114.67
1724666528.031;97;40.00;54411.07
1724666528.080;97;40.00;54411.07
1724666528.131;97;40.00;54411.07
1724666528.180;97;40.00;54253.93
1724666528.230;98;40.00;55270.20
1724666528.281;100;40.00;56273.40
1724666528.330;98;40.00;54812.00
1724666528.381;98;40.00;54812.00
1724666528.431;98;40.00;54812.00
1724666528.481;100;40.00;56273.40
1724666528.531;97;40.00;54398.46
1724666528.581;100;40.00;56273.40
1724666528.631;100;40.00;56273.40
1724666528.681;100;40.00;56273.40
1724666528.731;98;40.00;55419.13
1724666528.781;100;40.00;56273.40
1724666528.831;98;40.00;55477.87
1724666528.881;98;40.00;55477.87
1724666528.931;98;40.00;55477.87
1724666528.981;97;40.00;54597.40
1724666529.031;98;40.00;55289.46
1724666529.081;98;40.00;55287.46
1724666529.131;100;40.00;56273.40
1724666529.181;100;40.00;56273.40
1724666529.232;100;40.00;56273.40
1724666529.281;97;40.00;54371.60
1724666529.331;98;40.00;54951.60
1724666529.381;97;40.00;54212.60
1724666529.431;97;40.00;54212.60
1724666529.481;97;40.00;54212.60
1724666529.531;97;40.00;54278.27
1724666529.582;98;40.00;55183.60
1724666529.633;98;40.00;55183.60
1724666529.683;98;40.00;55183.60
1724666529.732;98;40.00;55183.60
1724666529.782;99;40.00;56266.80
1724666529.833;99;40.00;56022.00
1724666529.882;99;40.00;56022.00
1724666529.933;99;40.00;56022.00
1724666529.982;100;40.00;56273.40
1724666530.032;96;40.00;53599.87
1724666530.082;98;40.00;55258.54
1724666530.132;97;40.00;54121.87
1724666530.183;97;40.00;54121.87
1724666530.232;97;40.00;54121.87
1724666530.282;100;40.00;56273.40
1724666530.332;99;40.00;55910.54
1724666530.382;96;40.00;53852.60
1724666530.433;96;40.00;53852.60
1724666530.482;96;40.00;53852.60
1724666530.532;100;40.00;56273.40
1724666530.582;100;40.00;56273.40
1724666530.632;100;40.00;56273.40
1724666530.683;100;40.00;56273.40
1724666530.733;100;40.00;56273.40
1724666530.782;96;40.00;53602.73
1724666530.833;100;40.00;56273.40
1724666530.883;100;40.00;56273.40
1724666530.934;100;40.00;56273.40
1724666530.984;100;40.00;56273.40
1724666531.034;99;40.00;56245.80
1724666531.084;100;40.00;56273.40
