UnixTimestamp;Microseconds;MilliAmpere;BaseValue
1737388717.508;50;14.90;34569.33
1737388717.556;50;14.90;34569.33
1737388717.606;50;14.95;34631.07
1737388717.655;50;14.98;34667.33
1737388717.706;50;14.98;34667.33
1737388717.756;50;16.52;36398.80
1737388717.807;50;16.27;36114.13
1737388717.857;50;16.27;36114.13
1737388717.907;50;14.64;34284.67
1737388717.957;50;14.91;34580.13
1737388718.007;50;14.91;34580.13
1737388718.057;50;14.50;34116.40
1737388718.108;50;15.77;35555.33
1737388718.157;50;15.77;35555.33
1737388718.208;50;15.29;35017.46
1737388718.258;50;15.29;35017.46
1737388718.308;50;15.29;35017.46
1737388718.359;50;16.79;36701.87
1737388718.408;50;16.10;35925.00
1737388718.460;50;16.10;35925.00
1737388718.510;50;14.76;34420.00
1737388718.560;50;14.61;34248.00
1737388718.609;50;14.61;34248.00
1737388718.659;50;15.69;35466.00
1737388718.710;50;16.06;35884.67
1737388718.760;50;16.06;35884.67
1737388718.810;50;16.06;35884.67
1737388718.860;50;16.09;35920.54
1737388718.910;50;14.83;34495.40
1737388718.960;50;14.83;34495.40
1737388719.010;50;14.73;34380.80
1737388719.060;50;14.73;34380.80
1737388719.110;50;14.73;34380.80
1737388719.160;50;16.05;35871.60
1737388719.210;50;15.57;35326.54
1737388719.260;50;15.57;35326.54
1737388719.310;50;14.78;34435.13
1737388719.360;50;15.10;34802.40
1737388719.410;50;15.10;34802.40
1737388719.461;50;16.21;36054.93
1737388719.510;50;16.73;36637.20
1737388719.561;50;16.73;36637.20
1737388719.611;50;16.71;36611.20
1737388719.662;50;15.94;35747.54
1737388719.711;50;15.94;35747.54
1737388719.761;50;16.36;36215.40
1737388719.811;50;14.65;34286.67
1737388719.861;50;14.65;34286.67
1737388719.911;50;14.97;34650.87
1737388719.962;50;16.07;35892.00
1737388720.012;50;16.07;35892.00
1737388720.062;50;16.07;35892.00
1737388720.111;50;16.88;36810.13
1737388720.162;50;16.88;36810.13
1737388720.211;50;16.88;36810.13
1737388720.261;50;16.06;35878.27
1737388720.311;50;16.56;36450.46
1737388720.362;50;16.56;36450.46
1737388720.411;50;15.47;35211.93
1737388720.462;50;15.52;35267.73
1737388720.512;50;15.52;35267.73
1737388720.562;50;16.97;36909.73
1737388720.612;50;14.79;34451.07
1737388720.663;50;14.79;34451.07
1737388720.712;50;17.02;36969.60
1737388720.762;50;17.02;36969.60
1737388720.814;50;17.02;36969.60
1737388720.863;50;15.92;35718.93
1737388720.913;50;16.90;36827.33
1737388720.963;50;16.90;36827.33
1737388721.013;50;15.71;35491.60
1737388721.064;50;16.96;36901.60
1737388721.114;50;16.96;36901.60
1737388721.165;50;16.37;36229.46
1737388721.215;50;15.94;35744.93
1737388721.266;50;15.94;35744.93
1737388721.316;50;15.94;35744.93
1737388721.366;50;16.22;36063.00
1737388730.989;50;14.67;34314.40
1737388731.039;50;14.51;34134.60
1737388731.090;50;14.51;34134.60
1737388731.139;50;15.41;35150.67
1737388731.190;50;15.67;35445.46
1737388731.239;50;15.67;35445.46
1737388731.289;50;16.73;36639.60
1737388731.340;50;16.73;36639.60
1737388731.389;50;16.73;36639.60
1737388731.440;50;15.20;34905.87
1737388731.489;50;15.20;34905.87
1737388731.539;50;15.20;34905.87
1737388731.591;50;16.49;36371.20
1737388731.640;50;14.82;34486.67
1737388731.691;50;14.82;34486.67
1737388731.740;50;16.47;36348.93
1737388731.791;50;16.47;36348.93
1737388731.841;50;16.47;36348.93
1737388731.892;50;15.58;35342.13
1737388731.941;50;16.10;35929.80
1737388731.991;50;16.10;35929.80
1737388732.042;50;14.95;34630.40
1737388732.092;50;15.91;35713.60
1737388732.142;50;15.91;35713.60
1737388732.192;50;15.91;35713.60
1737388732.244;50;15.20;34910.40
1737388732.295;50;15.20;34910.40
1737388732.345;50;16.52;36399.46
1737388732.395;50;16.14;35972.80
1737388732.444;50;16.14;35972.80
1737388732.494;50;16.14;35972.80
1737388732.545;50;15.14;34841.07
1737388732.595;50;15.51;35257.20
1737388732.644;50;15.51;35257.20
1737388732.695;50;16.31;36160.54
1737388732.745;50;16.77;36687.33
1737388732.795;50;16.77;36687.33
1737388732.845;50;15.44;35177.73
1737388732.895;50;15.44;35177.73
1737388732.945;50;15.44;35177.73
1737388732.995;50;15.72;35493.60
1737388733.045;50;15.73;35513.46
1737388733.096;50;15.73;35513.46
1737388733.148;50;16.28;36127.07
1737388733.195;50;15.20;34909.87
1737388733.245;50;15.20;34909.87
1737388733.296;50;15.20;34909.87
1737388733.345;50;16.76;36672.93
1737388733.397;50;16.76;36672.93
1737388733.447;50;16.71;36619.07
1737388733.497;50;16.59;36484.93
1737388733.546;50;16.59;36484.93
1737388733.597;50;16.59;36484.93
1737388733.647;50;14.84;34502.13
1737388733.698;50;15.83;35618.54
1737388733.748;50;15.83;35618.54
1737388733.798;50;15.83;35618.54
1737388733.848;50;15.97;35785.46
1737388733.898;50;16.62;36517.73
1737388733.948;50;16.62;36517.73
1737388733.998;50;16.62;36517.73
1737388734.048;50;16.17;36005.87
1737388734.098;50;16.53;36417.07
1737388734.148;50;16.53;36417.07
1737388734.198;50;16.12;35948.13
1737388734.248;50;16.31;36163.60
1737388734.299;50;16.31;36163.60
1737388734.348;50;16.31;36163.60
1737388734.399;50;16.36;36217.46
1737388734.449;50;17.37;37363.46
1737388734.499;50;17.37;37363.46
1737388734.548;50;15.53;35282.27
1737388734.599;50;16.41;36271.73
1737388734.650;50;16.41;36271.73
1737388734.699;50;16.41;36271.73
1737388734.750;50;17.28;37258.93
1737388734.801;50;16.50;36379.60
1737388734.851;50;16.50;36379.60
1737388734.901;50;17.38;37365.40
1737388734.950;50;16.63;36527.07
1737388735.002;50;16.63;36527.07
1737388735.051;50;17.35;37338.40
1737388744.345;50;14.49;34111.20
1737388744.395;50;14.49;34111.20
1737388744.445;50;14.90;34572.93
1737388744.495;50;15.95;35761.46
1737388744.546;50;15.95;35761.46
1737388744.596;50;15.95;35761.46
1737388744.646;50;15.79;35577.33
1737388744.696;50;15.22;34938.00
1737388744.746;50;15.22;34938.00
1737388744.796;50;15.22;34938.00
1737388744.846;50;16.74;36647.33
1737388744.897;50;16.74;36647.33
1737388744.947;50;16.36;36214.80
1737388744.997;50;17.29;37267.33
1737388745.046;50;17.29;37267.33
1737388745.097;50;15.51;35257.60
1737388745.147;50;15.74;35515.93
1737388745.197;50;15.74;35515.93
1737388745.247;50;16.94;36878.93
1737388745.297;50;15.76;35545.00
1737388745.347;50;15.76;35545.00
1737388745.398;50;15.76;35545.00
1737388745.448;50;16.72;36626.54
1737388745.499;50;16.72;36626.54
1737388745.548;50;16.72;36626.54
1737388745.598;50;15.96;35764.40
1737388745.649;50;16.71;36613.80
1737388745.698;50;16.71;36613.80
1737388745.748;50;16.71;36613.80
1737388745.798;50;17.25;37218.80
1737388745.848;50;17.08;37026.93
1737388745.898;50;17.08;37026.93
1737388745.948;50;16.46;36332.80
1737388745.998;50;16.28;36126.13
1737388746.048;50;16.28;36126.13
1737388746.099;50;16.28;36126.13
1737388746.149;50;15.36;35093.33
1737388746.199;50;15.80;35587.60
1737388746.249;50;15.80;35587.60
1737388746.299;50;15.80;35587.60
1737388746.349;50;17.28;37254.67
1737388746.398;50;17.28;37254.67
1737388746.449;50;17.28;37254.67
1737388746.498;50;17.28;37254.67
1737388746.548;50;16.98;36922.80
1737388746.599;50;16.98;36922.80
1737388746.648;50;16.98;36922.80
1737388746.699;50;16.95;36889.87
1737388746.748;50;16.81;36730.67
1737388746.800;50;16.81;36730.67
1737388746.850;50;16.81;36730.67
1737388746.900;50;16.99;36929.46
1737388746.949;50;15.73;35514.80
1737388746.999;50;15.73;35514.80
1737388747.049;50;15.73;35514.80
1737388747.100;50;15.72;35501.40
1737388747.150;50;17.05;37001.46
1737388747.200;50;17.05;37001.46
1737388747.249;50;16.90;36834.67
1737388747.300;50;15.14;34840.33
1737388747.349;50;15.44;35185.20
1737388747.400;50;15.44;35185.20
1737388747.450;50;15.44;35185.20
1737388747.499;50;15.68;35449.40
1737388747.550;50;16.76;36671.73
1737388747.600;50;16.76;36671.73
1737388747.650;50;16.76;36671.73
1737388747.700;50;16.31;36159.46
1737388747.751;50;16.60;36486.80
1737388747.801;50;16.60;36486.80
1737388747.851;50;16.60;36486.80
1737388747.901;50;17.45;37453.60
1737388747.951;50;16.15;35987.73
1737388748.001;50;16.15;35987.73
1737388748.051;50;16.36;36220.93
1737388748.102;50;16.31;36161.46
1737388748.151;50;16.31;36161.46
1737388748.201;50;16.31;36161.46
1737388748.252;50;16.17;36007.93
1737388748.302;50;16.17;36007.93
1737388748.352;50;16.17;36007.93
1737388748.402;50;17.23;37197.33
1737388748.452;50;15.92;35720.33
1737388748.502;50;15.92;35720.33
1737388748.552;50;16.84;36763.80
1737388748.603;50;16.10;35924.27
1737388748.653;50;15.88;35674.54
1737388748.703;50;15.88;35674.54
1737388748.753;50;16.23;36067.87
1737388748.804;50;14.90;34569.07
1737388748.853;50;14.90;34569.07
1737388748.904;50;16.53;36410.80
1737388891.218;90;30.00;34073.46
1737388891.268;90;30.00;34073.46
1737388891.318;93;30.00;34512.33
1737388891.369;106;30.00;36883.60
1737388891.419;106;30.00;36883.60
1737388891.469;106;30.00;36883.60
1737388891.519;99;30.00;35672.67
1737388891.570;99;30.00;35672.67
1737388891.620;99;30.00;35672.67
1737388891.670;99;30.00;35636.00
1737388891.720;98;30.00;35383.73
1737388891.770;98;30.00;35383.73
1737388891.820;106;30.00;36898.60
1737388891.870;97;30.00;35348.54
1737388891.920;97;30.00;35348.54
1737388891.970;97;30.00;35348.54
1737388892.020;111;30.00;37685.46
1737388892.070;106;30.00;36858.67
1737388892.120;106;30.00;36858.67
1737388892.170;110;30.00;37583.73
1737388892.220;98;30.00;35443.73
1737388892.270;98;30.00;35443.73
1737388892.320;102;30.00;36086.54
1737388892.370;102;30.00;36086.54
1737388892.420;102;30.00;36086.54
1737388892.470;100;30.00;35872.67
1737388892.520;101;30.00;35936.27
1737388892.570;101;30.00;35936.27
1737388892.620;106;30.00;36876.40
1737388892.671;95;30.00;34924.40
1737388892.720;95;30.00;34924.40
1737388892.770;95;30.00;34924.40
1737388892.820;106;30.00;36778.40
1737388892.870;106;30.00;36778.40
1737388892.920;106;30.00;36778.40
1737388892.970;104;30.00;36444.80
1737388893.020;101;30.00;35953.87
1737388893.070;101;30.00;35953.87
1737388893.120;110;30.00;37564.00
1737388893.171;103;30.00;36301.27
1737388893.220;103;30.00;36301.27
1737388893.271;103;30.00;36303.07
1737388893.321;97;30.00;35308.00
1737388893.371;97;30.00;35308.00
1737388893.420;106;30.00;36799.33
1737388893.471;108;30.00;37119.67
1737388893.520;108;30.00;37119.67
1737388893.571;101;30.00;36032.13
1737388893.621;100;30.00;35730.27
1737388893.671;100;30.00;35730.27
1737388893.721;99;30.00;35615.07
1737388893.771;107;30.00;36943.87
1737388893.821;107;30.00;36943.87
1737388893.871;96;30.00;35040.27
1737388893.921;99;30.00;35579.80
1737388893.971;99;30.00;35579.80
1737388894.021;101;30.00;35963.00
1737388894.071;106;30.00;36771.13
1737388894.121;106;30.00;36771.13
1737388894.172;105;30.00;36712.27
1737388894.221;109;30.00;37379.07
1737388894.271;109;30.00;37379.07
1737388894.321;98;30.00;35448.00
1737388894.371;99;30.00;35687.40
1737388894.423;99;30.00;35687.40
1737388894.472;99;30.00;35687.40
1737388894.522;102;30.00;36203.20
1737388894.573;102;30.00;36203.20
1737388894.623;100;30.00;35832.80
1737388894.673;111;30.00;37749.67
1737388894.722;111;30.00;37749.67
1737388894.772;111;30.00;37749.67
1737388894.823;103;30.00;36384.40
1737388894.873;103;30.00;36384.40
1737388894.924;103;30.00;36384.40
1737388894.974;100;30.00;35879.73
1737388895.023;109;30.00;37309.07
1737388895.074;109;30.00;37309.07
1737388895.124;109;30.00;37393.87
1737388904.927;93;30.00;34510.54
1737388904.977;95;30.00;34939.60
1737388905.028;95;30.00;34939.60
1737388905.078;95;30.00;34939.60
1737388905.128;98;30.00;35382.67
1737388905.179;98;30.00;35382.67
1737388905.228;99;30.00;35658.00
1737388905.279;95;30.00;34880.93
1737388905.329;95;30.00;34880.93
1737388905.380;95;30.00;34880.93
1737388905.430;100;30.00;35728.54
1737388905.480;98;30.00;35379.20
1737388905.530;98;30.00;35379.20
1737388905.580;108;30.00;37251.87
1737388905.630;106;30.00;36839.07
1737388905.680;106;30.00;36839.07
1737388905.730;100;30.00;35797.20
1737388905.780;100;30.00;35797.20
1737388905.830;100;30.00;35797.20
1737388905.880;102;30.00;36152.27
1737388905.930;90;30.00;34053.33
1737388905.980;90;30.00;34053.33
1737388906.030;90;30.00;34053.33
1737388906.080;94;30.00;34730.80
1737388906.130;104;30.00;36561.73
1737388906.180;104;30.00;36561.73
1737388906.230;102;30.00;36124.13
1737388906.280;101;30.00;35974.00
1737388906.331;101;30.00;35974.00
1737388906.380;101;30.00;35974.00
1737388906.430;94;30.00;34730.00
1737388906.482;97;30.00;35260.80
1737388906.533;97;30.00;35260.80
1737388906.582;100;30.00;35879.20
1737388906.632;99;30.00;35613.46
1737388906.683;99;30.00;35613.46
1737388906.732;99;30.00;35613.46
1737388906.783;103;30.00;36371.07
1737388906.833;105;30.00;36737.73
1737388906.883;105;30.00;36737.73
1737388906.933;105;30.00;36737.73
1737388906.983;107;30.00;36991.20
1737388907.034;109;30.00;37440.27
1737388907.084;109;30.00;37440.27
1737388907.134;109;30.00;37440.27
1737388907.185;109;30.00;37440.27
1737388907.235;107;30.00;37100.67
1737388907.285;107;30.00;37100.67
1737388907.334;107;30.00;37100.67
1737388907.386;102;30.00;36075.80
1737388907.437;106;30.00;36893.73
1737388907.486;106;30.00;36893.73
1737388907.537;103;30.00;36414.13
1737388907.587;112;30.00;37812.40
1737388907.637;100;30.00;35840.54
1737388907.687;100;30.00;35840.54
1737388907.736;106;30.00;36888.80
1737388907.786;111;30.00;37729.46
1737388907.841;111;30.00;37729.46
1737388907.889;107;30.00;36985.60
1737388907.939;92;30.00;34365.87
1737388907.989;92;30.00;34365.87
1737388908.039;92;30.00;34365.87
1737388908.089;94;30.00;34831.60
1737388908.139;94;30.00;34831.60
1737388908.189;94;30.00;34831.60
1737388908.238;105;30.00;36680.54
1737388908.289;100;30.00;35807.87
1737388908.338;100;30.00;35807.87
1737388908.389;97;30.00;35229.20
1737388908.438;101;30.00;36012.93
1737388908.490;101;30.00;36012.93
1737388908.540;99;30.00;35558.00
1737388908.590;99;30.00;35558.00
1737388908.640;99;30.00;35558.00
1737388908.690;104;30.00;36456.54
1737388908.740;104;30.00;36456.54
1737388908.790;104;30.00;36456.54
1737388908.840;98;30.00;35482.13
1737388908.890;101;30.00;36022.67
1737388908.941;101;30.00;36022.67
1737388908.991;98;30.00;35480.93
1737388909.040;96;30.00;35073.07
1737388909.091;96;30.00;35073.07
1737388909.141;107;30.00;37067.60
1737388909.191;102;30.00;36129.20
1737388909.241;102;30.00;36129.20
1737388909.291;109;30.00;37381.73
1737388919.039;95;30.00;34917.07
1737388919.088;95;30.00;34917.07
1737388919.139;98;30.00;35378.00
1737388919.190;105;30.00;36607.73
1737388919.240;105;30.00;36607.73
1737388919.289;107;30.00;36998.80
1737388919.340;93;30.00;34574.54
1737388919.390;93;30.00;34574.54
1737388919.440;91;30.00;34219.20
1737388919.490;96;30.00;35153.20
1737388919.540;96;30.00;35153.20
1737388919.590;108;30.00;37264.67
1737388919.640;103;30.00;36352.54
1737388919.690;103;30.00;36352.54
1737388919.746;94;30.00;34705.60
1737388919.792;98;30.00;35433.54
1737388919.844;98;30.00;35433.54
1737388919.894;102;30.00;36085.73
1737388919.945;102;30.00;36085.73
1737388919.994;102;30.00;36085.73
1737388920.044;106;30.00;36909.73
1737388920.094;106;30.00;36909.73
1737388920.144;106;30.00;36909.73
1737388920.194;105;30.00;36621.00
1737388920.246;108;30.00;37184.00
1737388920.296;108;30.00;37184.00
1737388920.346;97;30.00;35313.73
1737388920.396;94;30.00;34699.20
1737388920.447;94;30.00;34699.20
1737388920.497;94;30.00;34699.20
1737388920.546;87;30.00;33606.67
1737388920.597;87;30.00;33606.67
1737388920.647;87;30.00;33606.67
1737388920.697;99;30.00;35582.13
1737388920.746;99;30.00;35582.13
1737388920.797;99;30.00;35582.13
1737388920.846;96;30.00;35106.60
1737388920.897;98;30.00;35464.87
1737388920.947;98;30.00;35464.87
1737388920.998;101;30.00;36057.87
1737388921.047;107;30.00;37055.20
1737388921.098;107;30.00;37055.20
1737388921.147;102;30.00;36101.46
1737388921.197;107;30.00;37053.73
1737388921.247;107;30.00;37053.73
1737388921.299;107;30.00;37053.73
1737388921.348;98;30.00;35470.13
1737388921.398;108;30.00;37241.60
1737388921.450;108;30.00;37241.60
1737388921.500;98;30.00;35461.46
1737388921.550;96;30.00;35147.46
1737388921.600;96;30.00;35147.46
1737388921.650;102;30.00;36099.13
1737388921.700;98;30.00;35401.73
1737388921.750;98;30.00;35401.73
1737388921.800;98;30.00;35401.73
1737388921.850;98;30.00;35506.67
1737388921.900;98;30.00;35506.67
1737388921.950;98;30.00;35506.67
1737388922.000;98;30.00;35508.13
1737388922.050;100;30.00;35868.13
1737388922.100;100;30.00;35868.13
1737388922.150;101;30.00;36011.33
1737388922.200;99;30.00;35562.93
1737388922.250;98;30.00;35399.20
1737388922.300;98;30.00;35399.20
1737388922.350;100;30.00;35723.60
1737388922.401;97;30.00;35348.13
1737388922.451;97;30.00;35348.13
1737388922.500;97;30.00;35348.13
1737388922.550;97;30.00;35227.87
1737388922.600;98;30.00;35412.80
1737388922.651;98;30.00;35412.80
1737388922.701;96;30.00;35121.07
1737388922.751;102;30.00;36165.60
1737388922.801;102;30.00;36165.60
1737388922.851;102;30.00;36175.60
1737388922.901;102;30.00;36178.93
1737388922.951;102;30.00;36178.93
1737388923.001;104;30.00;36429.07
1737389235.305;96;20.00;35175.60
1737389235.354;96;20.00;35054.13
1737389235.405;96;20.00;35054.13
1737389235.454;96;20.00;35059.20
1737389235.506;94;20.00;34713.33
1737389235.556;94;20.00;34713.33
1737389235.606;93;20.00;34659.60
1737389235.656;93;20.00;34519.87
1737389235.707;93;20.00;34519.87
1737389235.756;94;20.00;34785.60
1737389235.806;94;20.00;34839.87
1737389235.857;94;20.00;34839.87
1737389235.906;95;20.00;35006.80
1737389235.957;95;20.00;35006.80
1737389236.007;95;20.00;35006.80
1737389236.057;95;20.00;35006.80
1737389236.107;96;20.00;35033.46
1737389236.157;96;20.00;35033.46
1737389236.207;99;20.00;35569.87
1737389236.258;94;20.00;34827.07
1737389236.308;94;20.00;34827.07
1737389236.358;94;20.00;34827.07
1737389236.408;97;20.00;35215.20
1737389236.459;91;20.00;34250.80
1737389236.509;91;20.00;34250.80
1737389236.559;91;20.00;34250.80
1737389236.610;91;20.00;34314.80
1737389236.660;91;20.00;34314.80
1737389236.711;91;20.00;34185.33
1737389236.760;96;20.00;35148.40
1737389236.810;96;20.00;35148.40
1737389236.860;96;20.00;35148.40
1737389236.910;108;20.00;37198.60
1737389236.960;108;20.00;37198.60
1737389237.011;108;20.00;37198.60
1737389237.060;105;20.00;36638.80
1737389237.111;105;20.00;36638.80
1737389237.160;105;20.00;36638.80
1737389237.211;110;20.00;37509.13
1737389237.261;97;20.00;35250.54
1737389237.311;97;20.00;35250.54
1737389237.361;97;20.00;35250.54
1737389237.412;101;20.00;35905.87
1737389237.462;101;20.00;35905.87
1737389237.511;101;20.00;35905.87
1737389237.562;96;20.00;35128.80
1737389237.612;98;20.00;35457.60
1737389237.662;98;20.00;35457.60
1737389237.712;98;20.00;35457.60
1737389237.763;103;20.00;36363.60
1737389237.813;101;20.00;36065.93
1737389237.862;101;20.00;36065.93
1737389237.912;91;20.00;34317.07
1737389237.963;92;20.00;34425.07
1737389238.013;92;20.00;34425.07
1737389238.062;101;20.00;35946.93
1737389238.113;91;20.00;34252.80
1737389238.163;91;20.00;34252.80
1737389238.212;100;20.00;35797.60
1737389238.263;96;20.00;35116.40
1737389238.312;96;20.00;35116.40
1737389238.363;96;20.00;35116.40
1737389238.412;102;20.00;36120.46
1737389238.462;102;20.00;36120.46
1737389238.513;102;20.00;36120.46
1737389238.562;107;20.00;37023.46
1737389238.613;107;20.00;37023.46
1737389238.662;107;20.00;37023.46
1737389238.712;104;20.00;36519.33
1737389238.762;96;20.00;35111.33
1737389238.814;96;20.00;35111.33
1737389238.863;96;20.00;35094.67
1737389238.914;96;20.00;35094.67
1737389238.964;96;20.00;35094.67
1737389239.014;94;20.00;34727.20
1737389239.065;101;20.00;36049.46
1737389239.114;101;20.00;36049.46
1737389239.164;101;20.00;36049.46
1737389239.214;106;20.00;36850.13
1737389239.265;108;20.00;37285.13
1737389239.315;108;20.00;37285.13
1737389239.364;95;20.00;34939.20
1737389239.414;96;20.00;35030.54
1737389239.466;96;20.00;35030.54
1737389239.515;96;20.00;35030.54
1737389239.566;104;20.00;36446.40
1737389249.207;95;20.00;34872.46
1737389249.257;92;20.00;34404.93
1737389249.308;92;20.00;34404.93
1737389249.357;97;20.00;35223.60
1737389249.408;100;20.00;35799.60
1737389249.458;100;20.00;35799.60
1737389249.507;91;20.00;34294.93
1737389249.557;102;20.00;36196.27
1737389249.609;102;20.00;36196.27
1737389249.658;110;20.00;37570.80
1737389249.708;98;20.00;35536.27
1737389249.758;98;20.00;35536.27
1737389249.808;98;20.00;35536.27
1737389249.858;101;20.00;36001.20
1737389249.910;95;20.00;34874.13
1737389249.960;95;20.00;34874.13
1737389250.010;95;20.00;34874.13
1737389250.060;98;20.00;35498.27
1737389250.110;98;20.00;35498.27
1737389250.161;98;20.00;35498.27
1737389250.211;96;20.00;35164.40
1737389250.260;102;20.00;36071.87
1737389250.310;102;20.00;36071.87
1737389250.361;102;20.00;36071.87
1737389250.411;98;20.00;35486.40
1737389250.460;98;20.00;35486.40
1737389250.511;98;20.00;35486.40
1737389250.561;108;20.00;37262.54
1737389250.611;108;20.00;37262.54
1737389250.661;108;20.00;37262.54
1737389250.711;108;20.00;37204.40
1737389250.762;108;20.00;37204.40
1737389250.812;102;20.00;36188.13
1737389250.862;96;20.00;35084.54
1737389250.911;96;20.00;35084.54
1737389250.962;96;20.00;35100.54
1737389251.012;97;20.00;35307.33
1737389251.061;97;20.00;35307.33
1737389251.112;97;20.00;35307.33
1737389251.162;92;20.00;34332.87
1737389251.211;95;20.00;34973.60
1737389251.262;95;20.00;34973.60
1737389251.311;97;20.00;35321.60
1737389251.362;105;20.00;36675.07
1737389251.412;105;20.00;36675.07
1737389251.461;96;20.00;35197.07
1737389251.512;98;20.00;35398.54
1737389251.562;98;20.00;35398.54
1737389251.612;106;20.00;36807.40
1737389251.662;107;20.00;36944.67
1737389251.712;107;20.00;36944.67
1737389251.763;101;20.00;36069.46
1737389251.813;108;20.00;37138.00
1737389251.862;108;20.00;37138.00
1737389251.913;96;20.00;35053.46
1737389251.962;106;20.00;36875.73
1737389252.014;106;20.00;36875.73
1737389252.063;103;20.00;36373.73
1737389252.115;110;20.00;37559.46
1737389252.165;110;20.00;37559.46
1737389252.215;110;20.00;37559.46
1737389252.266;102;20.00;36229.73
1737389252.316;105;20.00;36710.00
1737389252.365;105;20.00;36710.00
1737389252.415;102;20.00;36078.93
1737389252.465;110;20.00;37501.33
1737389252.516;110;20.00;37501.33
1737389252.566;110;20.00;37501.33
1737389252.615;110;20.00;37508.60
1737389252.667;110;20.00;37508.60
1737389252.716;110;20.00;37508.60
1737389252.767;104;20.00;36475.20
1737389252.816;109;20.00;37315.60
1737389252.867;109;20.00;37315.60
1737389252.917;102;20.00;36197.13
1737389252.968;101;20.00;36065.87
1737389253.017;101;20.00;36065.87
1737389253.068;101;20.00;36065.87
1737389253.118;110;20.00;37568.27
1737389253.168;110;20.00;37568.27
1737389253.218;110;20.00;37568.27
1737389263.248;91;20.00;34232.87
1737389263.298;91;20.00;34232.87
1737389263.349;91;20.00;34232.87
1737389263.399;107;20.00;37067.27
1737389263.450;102;20.00;36152.54
1737389263.499;102;20.00;36152.54
1737389263.550;103;20.00;36306.93
1737389263.600;103;20.00;36306.93
1737389263.650;103;20.00;36306.93
1737389263.701;98;20.00;35396.54
1737389263.750;102;20.00;36214.20
1737389263.801;102;20.00;36214.20
1737389263.850;99;20.00;35662.27
1737389263.900;98;20.00;35541.07
1737389263.950;98;20.00;35541.07
1737389264.001;98;20.00;35541.07
1737389264.051;92;20.00;34446.13
1737389264.101;92;20.00;34446.13
1737389264.151;92;20.00;34446.13
1737389264.201;105;20.00;36693.20
1737389264.251;101;20.00;36050.27
1737389264.301;101;20.00;36050.27
1737389264.351;99;20.00;35689.60
1737389264.400;102;20.00;36148.93
1737389264.451;102;20.00;36148.93
1737389264.501;102;20.00;36148.93
1737389264.551;94;20.00;34681.20
1737389264.601;110;20.00;37590.54
1737389264.651;110;20.00;37590.54
1737389264.701;110;20.00;37590.54
1737389264.751;91;20.00;34198.40
1737389264.802;91;20.00;34198.40
1737389264.852;91;20.00;34198.40
1737389264.903;99;20.00;35597.46
1737389264.953;97;20.00;35203.73
1737389265.003;97;20.00;35203.73
1737389265.053;100;20.00;35847.73
1737389265.102;99;20.00;35578.07
1737389265.153;99;20.00;35578.07
1737389265.203;99;20.00;35705.80
1737389265.253;95;20.00;34890.93
1737389265.303;95;20.00;34890.93
1737389265.353;96;20.00;35186.27
1737389265.403;104;20.00;36575.13
1737389265.453;104;20.00;36575.13
1737389265.504;104;20.00;36575.13
1737389265.553;97;20.00;35254.40
1737389265.603;100;20.00;35833.46
1737389265.653;100;20.00;35833.46
1737389265.704;102;20.00;36203.33
1737389265.754;102;20.00;36203.33
1737389265.805;102;20.00;36203.33
1737389265.855;95;20.00;34912.93
1737389265.905;95;20.00;34912.93
1737389265.956;101;20.00;35952.54
1737389266.006;94;20.00;34827.33
1737389266.056;94;20.00;34827.33
1737389266.106;94;20.00;34827.33
1737389266.157;109;20.00;37368.13
1737389266.207;109;20.00;37368.13
1737389266.258;109;20.00;37368.13
1737389266.308;109;20.00;37368.13
1737389266.359;95;20.00;34972.27
1737389266.409;95;20.00;34972.27
1737389266.458;95;20.00;34972.27
1737389266.508;103;20.00;36269.33
1737389266.558;100;20.00;35798.27
1737389266.608;100;20.00;35798.27
1737389266.658;108;20.00;37209.60
1737389266.709;108;20.00;37114.60
1737389266.759;108;20.00;37114.60
1737389266.809;108;20.00;37114.60
1737389266.859;103;20.00;36320.54
1737389266.909;103;20.00;36320.54
1737389266.959;103;20.00;36320.54
1737389267.009;100;20.00;35830.54
1737389267.059;100;20.00;35830.54
1737389267.109;100;20.00;35830.54
1737389415.664;500;14.80;34461.93
1737389415.714;500;14.80;34461.93
1737389415.764;500;14.80;34461.93
1737389415.814;500;17.85;37901.73
1737389415.865;500;17.42;37420.46
1737389415.915;500;17.42;37420.46
1737389415.965;500;14.96;34635.40
1737389416.015;500;17.38;37368.54
1737389416.066;500;17.38;37368.54
1737389416.116;500;17.38;37368.54
1737389416.166;500;16.98;36920.67
1737389416.217;500;15.77;35556.54
1737389416.267;500;15.77;35556.54
1737389416.318;500;17.33;37311.73
1737389416.367;500;16.03;35849.60
1737389416.418;500;16.18;36022.54
1737389416.475;500;16.18;36022.54
1737389416.522;500;15.54;35289.80
1737389416.572;500;15.84;35633.33
1737389416.622;500;15.56;35316.00
1737389416.672;500;15.56;35316.00
1737389416.722;500;14.57;34202.40
1737389416.773;500;16.53;36409.46
1737389416.822;500;16.53;36409.46
1737389416.872;500;16.53;36409.46
1737389416.923;500;15.78;35566.13
1737389416.972;500;15.78;35566.13
1737389417.022;500;15.78;35566.13
1737389417.072;500;15.22;34936.54
1737389417.123;500;15.22;34936.54
1737389417.172;500;15.22;34936.54
1737389417.222;500;15.30;35024.00
1737389417.272;500;15.30;35024.00
1737389417.322;500;15.30;35024.00
1737389417.372;500;15.78;35564.54
1737389417.422;500;15.74;35519.07
1737389417.472;500;15.74;35519.07
1737389417.522;500;16.09;35915.40
1737389417.573;500;15.18;34886.93
1737389417.622;500;15.18;34886.93
1737389417.672;500;15.18;34886.93
1737389417.723;500;15.09;34784.27
1737389417.772;500;15.09;34784.27
1737389417.822;500;15.09;34784.27
1737389417.872;500;15.48;35226.93
1737389417.922;500;16.11;35940.00
1737389417.972;500;16.11;35940.00
1737389418.022;500;17.03;36972.54
1737389418.072;500;17.50;37500.80
1737389418.122;500;16.33;36181.33
1737389418.172;500;16.33;36181.33
1737389418.223;500;14.94;34623.46
1737389418.272;500;14.66;34306.80
1737389418.322;500;14.66;34306.80
1737389418.372;500;14.66;34306.80
1737389418.422;500;16.16;35989.73
1737389418.472;500;16.16;35989.73
1737389418.522;500;16.16;35989.73
1737389418.572;500;16.14;35968.80
1737389418.623;500;16.14;35968.80
1737389418.673;500;16.14;35968.80
1737389418.722;500;14.83;34490.27
1737389418.773;500;14.83;34490.27
1737389418.824;500;14.83;34490.27
1737389418.874;500;15.32;35041.20
1737389418.923;500;15.81;35599.87
1737389418.974;500;15.81;35599.87
1737389419.023;500;15.81;35599.87
1737389419.073;500;15.01;34701.07
1737389419.123;500;15.01;34701.07
1737389419.174;500;15.01;34701.07
1737389419.224;500;14.53;34152.54
1737389419.274;500;14.65;34289.60
1737389419.324;500;14.65;34289.60
1737389419.374;500;15.67;35440.13
1737389419.424;500;15.67;35440.13
1737389419.474;500;15.67;35440.13
1737389419.525;500;16.58;36468.80
1737389419.575;500;15.74;35525.60
1737389419.626;500;15.74;35525.60
1737389419.676;500;15.74;35525.60
1737389429.499;500;14.76;34416.60
1737389429.550;500;15.42;35155.73
1737389429.599;500;15.42;35155.73
1737389429.649;500;15.42;35155.73
1737389429.699;500;17.16;37120.93
1737389429.749;500;17.77;37805.60
1737389429.799;500;17.77;37805.60
1737389429.849;500;17.04;36989.33
1737389429.900;500;17.35;37341.07
1737389429.950;500;17.35;37341.07
1737389429.999;500;17.35;37341.07
1737389430.050;500;17.24;37217.33
1737389430.101;500;16.60;36487.46
1737389430.150;500;16.60;36487.46
1737389430.201;500;16.60;36487.46
1737389430.250;500;16.22;36062.13
1737389430.301;500;15.65;35423.60
1737389430.351;500;15.65;35423.60
1737389430.401;500;15.65;35423.60
1737389430.451;500;18.06;38141.07
1737389430.501;500;16.10;35929.60
1737389430.551;500;16.10;35929.60
1737389430.601;500;16.10;35929.60
1737389430.651;500;17.19;37156.67
1737389430.701;500;17.68;37709.87
1737389430.751;500;17.68;37709.87
1737389430.801;500;17.68;37709.87
1737389430.851;500;14.85;34517.60
1737389430.901;500;14.85;34517.60
1737389430.951;500;14.85;34517.60
1737389431.001;500;16.86;36781.87
1737389431.051;500;15.48;35225.07
1737389431.101;500;15.48;35225.07
1737389431.151;500;15.48;35225.07
1737389431.201;500;16.34;36198.54
1737389431.251;500;16.34;36198.54
1737389431.301;500;16.34;36198.54
1737389431.351;500;17.11;37062.60
1737389431.402;500;17.11;37062.60
1737389431.451;500;17.11;37062.60
1737389431.501;500;17.44;37441.93
1737389431.551;500;16.74;36647.20
1737389431.602;500;16.74;36647.20
1737389431.652;500;16.74;36647.20
1737389431.702;500;16.84;36764.20
1737389431.751;500;16.58;36473.67
1737389431.802;500;16.58;36473.67
1737389431.852;500;18.13;38212.13
1737389431.902;500;18.13;38212.13
1737389431.952;500;18.13;38212.13
1737389432.002;500;18.52;38657.46
1737389432.052;500;17.75;37785.87
1737389432.102;500;17.75;37785.87
1737389432.152;500;17.75;37785.87
1737389432.202;500;16.21;36056.00
1737389432.252;500;16.21;36056.00
1737389432.302;500;16.21;36056.00
1737389432.352;500;17.29;37266.80
1737389432.402;500;16.20;36036.54
1737389432.452;500;16.20;36036.54
1737389432.502;500;16.20;36036.54
1737389432.552;500;15.83;35621.33
1737389432.602;500;15.83;35621.33
1737389432.653;500;15.83;35621.33
1737389432.703;500;15.17;34874.54
1737389432.754;500;16.44;36315.13
1737389432.804;500;16.44;36315.13
1737389432.855;500;16.44;36315.13
1737389432.905;500;15.11;34813.87
1737389432.955;500;15.11;34813.87
1737389433.004;500;15.11;34813.87
1737389433.054;500;15.84;35634.40
1737389433.105;500;15.18;34885.60
1737389433.156;500;15.18;34885.60
1737389433.206;500;15.18;34885.60
1737389433.256;500;16.12;35949.33
1737389433.306;500;16.12;35949.33
1737389433.356;500;16.12;35949.33
1737389433.407;500;16.38;36241.33
1737389433.457;500;16.15;35985.87
1737389433.508;500;16.15;35985.87
1737389433.558;500;16.02;35838.40
1737389433.607;500;15.61;35377.60
1737389433.658;500;15.61;35377.60
1737389433.708;500;15.61;35377.60
1737389433.758;500;15.65;35423.33
1737389433.807;500;15.65;35423.33
1737389433.859;500;15.65;35423.33
1737389444.058;500;14.91;34587.46
1737389444.108;500;15.29;35010.07
1737389444.157;500;15.29;35010.07
1737389444.209;500;15.29;35010.07
1737389444.260;500;16.16;35998.27
1737389444.310;500;16.16;35998.27
1737389444.360;500;16.16;35998.27
1737389444.411;500;17.09;37047.46
1737389444.461;500;18.05;38123.20
1737389444.511;500;18.05;38123.20
1737389444.561;500;18.38;38496.27
1737389444.611;500;15.25;34967.07
1737389444.661;500;15.25;34967.07
1737389444.711;500;15.25;34967.07
1737389444.761;500;15.16;34862.60
1737389444.811;500;15.16;34862.60
1737389444.862;500;15.16;34862.60
1737389444.912;500;16.67;36566.27
1737389444.962;500;16.67;36566.27
1737389445.012;500;16.67;36566.27
1737389445.062;500;17.72;37755.46
1737389445.113;500;15.19;34896.13
1737389445.162;500;15.19;34896.13
1737389445.212;500;15.19;34896.13
1737389445.262;500;16.98;36918.40
1737389445.313;500;16.98;36918.40
1737389445.362;500;16.98;36918.40
1737389445.412;500;17.91;37967.80
1737389445.462;500;17.58;37601.00
1737389445.513;500;17.58;37601.00
1737389445.563;500;15.33;35059.73
1737389445.613;500;16.04;35860.00
1737389445.663;500;16.04;35860.00
1737389445.714;500;16.04;35860.00
1737389445.763;500;16.88;36803.46
1737389445.813;500;16.88;36803.46
1737389445.863;500;16.88;36803.46
1737389445.914;500;17.53;37536.13
1737389445.964;500;16.47;36345.20
1737389446.014;500;16.47;36345.20
1737389446.064;500;17.17;37129.20
1737389446.114;500;15.69;35466.40
1737389446.164;500;17.38;37369.20
1737389446.214;500;17.38;37369.20
1737389446.264;500;17.38;37369.20
1737389446.315;500;17.99;38057.46
1737389446.364;500;16.38;36243.46
1737389446.415;500;16.38;36243.46
1737389446.464;500;16.38;36243.46
1737389446.515;500;17.71;37747.20
1737389446.564;500;15.23;34941.60
1737389446.614;500;15.23;34941.60
1737389446.664;500;16.00;35818.80
1737389446.715;500;18.85;39025.73
1737389446.764;500;18.85;39025.73
1737389446.815;500;18.85;39025.73
1737389446.865;500;15.29;35011.13
1737389446.914;500;17.84;37893.87
1737389446.964;500;17.84;37893.87
1737389447.014;500;17.84;37893.87
1737389447.064;500;15.94;35741.20
1737389447.115;500;17.17;37137.93
1737389447.165;500;16.68;36579.07
1737389447.214;500;16.68;36579.07
1737389447.265;500;16.68;36579.07
1737389447.315;500;16.92;36856.00
1737389447.365;500;15.60;35366.80
1737389447.415;500;15.60;35366.80
1737389447.466;500;15.60;35366.80
1737389447.516;500;17.15;37106.40
1737389447.566;500;17.87;37925.46
1737389447.616;500;17.87;37925.46
1737389447.667;500;17.87;37925.46
1737389447.717;500;18.78;38947.07
1737389447.766;500;18.34;38448.27
1737389447.816;500;18.34;38448.27
1737389447.867;500;18.34;38448.27
1737389447.916;500;18.34;38454.93
1737389447.966;500;16.80;36711.73
1737389448.017;500;16.80;36711.73
1737389448.067;500;16.80;36711.73
1737389448.118;500;18.05;38130.27
1737389448.167;500;18.47;38602.80
1737389448.218;500;18.47;38602.80
1737389448.268;500;18.47;38602.80
1737389448.318;500;16.18;36011.87
1737389448.367;500;16.18;36011.87
1737389448.418;500;16.18;36011.87
1737389448.467;500;18.46;38594.27
1737389448.519;500;14.51;34137.33
1737389448.569;500;14.51;34137.33
1737389448.619;500;14.51;34137.33
1737389448.669;500;15.58;35337.33
1737389448.719;500;15.29;35009.33
1737389448.769;500;15.29;35009.33
1737389448.820;500;15.29;35009.33
1737389584.894;200;15.70;35473.46
1737389584.945;200;15.70;35473.46
1737389584.995;200;15.70;35473.46
1737389585.045;200;15.17;34880.20
1737389585.095;200;14.44;34050.93
1737389585.146;200;14.44;34050.93
1737389585.196;200;15.46;35203.46
1737389585.245;200;15.98;35792.27
1737389585.295;200;15.98;35792.27
1737389585.345;200;14.79;34444.13
1737389585.396;200;17.02;36966.00
1737389585.447;200;17.02;36966.00
1737389585.496;200;15.85;35645.73
1737389585.546;200;17.35;37332.93
1737389585.596;200;17.35;37332.93
1737389585.647;200;16.19;36026.27
1737389585.696;200;15.89;35686.80
1737389585.746;200;15.89;35686.80
1737389585.797;200;15.98;35785.87
1737389585.846;200;15.98;35785.87
1737389585.897;200;15.98;35785.87
1737389585.947;200;14.65;34291.46
1737389585.996;200;16.09;35915.20
1737389586.047;200;16.09;35915.20
1737389586.096;200;16.09;35915.20
1737389586.146;200;16.74;36651.07
1737389586.196;200;16.64;36533.07
1737389586.247;200;16.64;36533.07
1737389586.297;200;15.60;35358.27
1737389586.347;200;15.29;35009.07
1737389586.397;200;15.29;35009.07
1737389586.447;200;15.29;35009.07
1737389586.497;200;17.52;37530.93
1737389586.547;200;17.52;37530.93
1737389586.597;200;17.52;37530.93
1737389586.647;200;14.96;34640.40
1737389586.697;200;15.73;35503.73
1737389586.747;200;15.73;35503.73
1737389586.797;200;16.98;36917.13
1737389586.847;200;14.52;34145.80
1737389586.898;200;14.52;34145.80
1737389586.948;200;14.52;34145.80
1737389586.997;200;16.22;36061.87
1737389587.048;200;16.22;36061.87
1737389587.098;200;16.22;36061.87
1737389587.148;200;15.02;34706.13
1737389587.199;200;16.37;36234.80
1737389587.248;200;16.37;36234.80
1737389587.299;200;16.05;35872.27
1737389587.349;200;17.11;37062.67
1737389587.398;200;17.11;37062.67
1737389587.449;200;17.11;37062.67
1737389587.498;200;17.45;37454.54
1737389587.548;200;15.74;35517.87
1737389587.599;200;15.74;35517.87
1737389587.649;200;16.53;36411.33
1737389587.699;200;16.49;36363.54
1737389587.748;200;16.49;36363.54
1737389587.798;200;16.29;36137.87
1737389587.849;200;15.70;35472.67
1737389587.898;200;15.70;35472.67
1737389587.949;200;16.07;35895.73
1737389587.998;200;15.52;35271.46
1737389588.049;200;15.52;35271.46
1737389588.099;200;15.92;35725.07
1737389588.149;200;15.33;35054.27
1737389588.199;200;15.33;35054.27
1737389588.250;200;17.58;37591.46
1737389588.300;200;15.33;35060.54
1737389588.350;200;15.33;35060.54
1737389588.400;200;15.33;35060.54
1737389588.450;200;15.59;35352.54
1737389588.500;200;16.61;36501.87
1737389588.550;200;16.61;36501.87
1737389588.600;200;16.92;36851.60
1737389588.650;200;16.27;36116.13
1737389588.700;200;16.27;36116.13
1737389588.750;200;16.27;36116.13
1737389588.800;200;15.78;35560.80
1737389588.851;200;16.78;36699.33
1737389588.901;200;16.78;36699.33
1737389588.951;200;14.72;34372.40
1737389598.786;200;14.56;34192.00
1737389598.837;200;14.56;34192.00
1737389598.886;200;14.56;34192.00
1737389598.936;200;15.31;35036.93
1737389598.988;200;16.85;36769.73
1737389599.037;200;16.85;36769.73
1737389599.088;200;16.85;36769.73
1737389599.137;200;16.63;36523.33
1737389599.187;200;16.63;36523.33
1737389599.238;200;16.63;36523.33
1737389599.288;200;15.50;35249.20
1737389599.339;200;15.50;35249.20
1737389599.389;200;15.50;35249.20
1737389599.438;200;16.17;36005.20
1737389599.490;200;16.17;36005.20
1737389599.539;200;16.17;36005.20
1737389599.589;200;15.81;35600.54
1737389599.639;200;15.48;35232.54
1737389599.689;200;15.48;35232.54
1737389599.741;200;14.76;34410.33
1737389599.791;200;14.76;34410.33
1737389599.841;200;14.76;34410.33
1737389599.891;200;14.76;34410.33
1737389599.941;200;16.41;36275.33
1737389599.991;200;16.41;36275.33
1737389600.041;200;16.41;36275.33
1737389600.091;200;15.15;34856.67
1737389600.141;200;15.15;34856.67
1737389600.191;200;15.15;34856.67
1737389600.241;200;15.26;34973.87
1737389600.291;200;15.52;35271.46
1737389600.341;200;15.52;35271.46
1737389600.391;200;15.44;35181.07
1737389600.441;200;16.65;36550.27
1737389600.491;200;16.65;36550.27
1737389600.541;200;16.65;36550.27
1737389600.591;200;17.67;37695.33
1737389600.641;200;17.67;37695.33
1737389600.691;200;17.67;37695.33
1737389600.741;200;17.52;37526.27
1737389600.791;200;17.52;37526.27
1737389600.841;200;17.52;37526.27
1737389600.891;200;17.58;37591.73
1737389600.941;200;17.58;37591.73
1737389600.991;200;17.58;37591.73
1737389601.041;200;16.57;36454.20
1737389601.091;200;16.57;36454.20
1737389601.141;200;16.57;36454.20
1737389601.191;200;15.63;35402.00
1737389601.242;200;15.63;35402.00
1737389601.291;200;15.63;35402.00
1737389601.341;200;15.51;35266.00
1737389601.391;200;15.51;35266.00
1737389601.441;200;15.51;35266.00
1737389601.491;200;14.90;34574.67
1737389601.541;200;15.05;34737.73
1737389601.591;200;15.05;34737.73
1737389601.641;200;14.83;34497.73
1737389601.692;200;15.82;35610.67
1737389601.741;200;15.82;35610.67
1737389601.791;200;15.82;35610.67
1737389601.841;200;15.27;34988.93
1737389601.891;200;15.27;34988.93
1737389601.941;200;15.27;34988.93
1737389601.991;200;16.90;36829.07
1737389602.041;200;16.90;36829.07
1737389602.091;200;16.90;36829.07
1737389602.141;200;15.06;34756.80
1737389602.191;200;15.06;34756.80
1737389602.241;200;15.06;34756.80
1737389602.291;200;15.06;34756.80
1737389602.341;200;16.09;35912.13
1737389602.391;200;16.09;35912.13
1737389602.441;200;16.09;35912.13
1737389602.491;200;17.05;37000.93
1737389602.542;200;17.71;37739.46
1737389602.594;200;17.71;37739.46
1737389602.644;200;15.52;35266.93
1737389602.694;200;14.68;34320.27
1737389602.745;200;14.68;34320.27
1737389602.795;200;14.68;34320.27
1737389602.845;200;15.09;34785.60
1737389602.895;200;16.16;35999.46
1737389602.945;200;16.16;35999.46
1737389602.995;200;16.16;35999.46
1737389612.638;200;14.85;34518.67
1737389612.689;200;14.85;34518.67
1737389612.739;200;14.85;34518.67
1737389612.788;200;15.14;34845.54
1737389612.839;200;16.70;36604.80
1737389612.889;200;16.70;36604.80
1737389612.939;200;15.24;34960.93
1737389612.989;200;16.08;35901.60
1737389613.039;200;16.08;35901.60
1737389613.090;200;15.38;35109.20
1737389613.140;200;15.98;35796.13
1737389613.189;200;15.98;35796.13
1737389613.240;200;17.11;37063.07
1737389613.290;200;15.97;35775.73
1737389613.339;200;15.97;35775.73
1737389613.390;200;15.18;34884.40
1737389613.439;200;15.17;34877.73
1737389613.490;200;15.17;34877.73
1737389613.540;200;15.16;34864.67
1737389613.590;200;15.37;35104.80
1737389613.640;200;15.37;35104.80
1737389613.690;200;15.97;35779.27
1737389613.739;200;14.38;33986.80
1737389613.790;200;14.38;33986.80
1737389613.839;200;14.34;33936.27
1737389613.889;200;14.84;34510.80
1737389613.940;200;14.84;34510.80
1737389613.989;200;14.65;34290.67
1737389614.041;200;17.07;37025.13
1737389614.091;200;17.07;37025.13
1737389614.141;200;15.05;34740.13
1737389614.191;200;15.75;35531.33
1737389614.241;200;15.75;35531.33
1737389614.291;200;14.66;34306.67
1737389614.341;200;15.35;35081.33
1737389614.391;200;15.35;35081.33
1737389614.441;200;15.69;35464.93
1737389614.491;200;16.00;35816.40
1737389614.541;200;16.00;35816.40
1737389614.591;200;17.72;37748.67
1737389614.641;200;13.99;33545.87
1737389614.691;200;13.99;33545.87
1737389614.741;200;13.99;33545.87
1737389614.791;200;16.21;36053.87
1737389614.841;200;15.56;35315.33
1737389614.892;200;15.56;35315.33
1737389614.941;200;14.93;34606.93
1737389614.991;200;14.89;34563.60
1737389615.042;200;14.89;34563.60
1737389615.091;200;14.89;34563.60
1737389615.141;200;16.94;36869.73
1737389615.192;200;16.94;36869.73
1737389615.242;200;16.94;36869.73
1737389615.292;200;16.74;36650.07
1737389615.342;200;16.76;36670.13
1737389615.392;200;16.76;36670.13
1737389615.442;200;15.48;35230.40
1737389615.492;200;16.67;36568.80
1737389615.543;200;16.67;36568.80
1737389615.592;200;16.42;36290.60
1737389615.642;200;16.42;36290.60
1737389615.692;200;16.42;36290.60
1737389615.742;200;17.08;37031.60
1737389615.792;200;15.54;35293.46
1737389615.842;200;15.54;35293.46
1737389615.892;200;14.39;34000.93
1737389615.942;200;14.41;34025.20
1737389615.993;200;14.41;34025.20
1737389616.042;200;15.29;35011.60
1737389616.092;200;15.29;35011.60
1737389616.143;200;15.29;35011.60
1737389616.193;200;16.30;36154.27
1737389616.243;200;15.10;34798.87
1737389616.293;200;15.10;34798.87
1737389616.344;200;15.40;35139.20
1737389616.395;200;15.48;35221.87
1737389616.445;200;15.48;35221.87
1737389616.495;200;14.82;34477.20
1737389616.545;200;15.05;34745.87
1737389616.595;200;15.05;34745.87
1737389616.645;200;15.74;35521.20
1737389764.531;91;40.00;34163.46
1737389764.581;91;40.00;34163.46
1737389764.631;91;40.00;34163.46
1737389764.681;102;40.00;36208.93
1737389764.731;110;40.00;37468.13
1737389764.781;110;40.00;37468.13
1737389764.831;108;40.00;37133.87
1737389764.881;105;40.00;36601.33
1737389764.931;105;40.00;36601.33
1737389764.981;105;40.00;36601.33
1737389765.031;107;40.00;37000.67
1737389765.081;107;40.00;37000.67
1737389765.131;107;40.00;37000.67
1737389765.181;92;40.00;34435.60
1737389765.232;92;40.00;34439.87
1737389765.282;92;40.00;34439.87
1737389765.332;105;40.00;36691.07
1737389765.381;102;40.00;36104.93
1737389765.432;102;40.00;36104.93
1737389765.482;102;40.00;36104.93
1737389765.532;99;40.00;35704.54
1737389765.581;99;40.00;35704.54
1737389765.632;99;40.00;35704.54
1737389765.681;105;40.00;36744.80
1737389765.731;102;40.00;36221.73
1737389765.782;102;40.00;36221.73
1737389765.832;97;40.00;35342.13
1737389765.882;97;40.00;35299.46
1737389765.932;97;40.00;35299.46
1737389765.982;97;40.00;35299.46
1737389766.032;93;40.00;34654.93
1737389766.082;113;40.00;38047.20
1737389766.132;113;40.00;38047.20
1737389766.183;113;40.00;38047.20
1737389766.232;96;40.00;35065.33
1737389766.283;96;40.00;35065.33
1737389766.333;96;40.00;35065.33
1737389766.383;99;40.00;35555.20
1737389766.433;99;40.00;35612.40
1737389766.483;99;40.00;35612.40
1737389766.532;104;40.00;36431.80
1737389766.583;104;40.00;36431.80
1737389766.632;104;40.00;36431.80
1737389766.683;96;40.00;35191.87
1737389766.733;94;40.00;34720.54
1737389766.783;94;40.00;34720.54
1737389766.832;91;40.00;34240.40
1737389766.882;91;40.00;34303.07
1737389766.933;91;40.00;34303.07
1737389766.983;91;40.00;34303.07
1737389767.032;108;40.00;37122.00
1737389767.083;100;40.00;35738.54
1737389767.133;100;40.00;35738.54
1737389767.182;102;40.00;36191.60
1737389767.234;100;40.00;35867.33
1737389767.284;100;40.00;35867.33
1737389767.333;100;40.00;35867.33
1737389767.388;92;40.00;34355.87
1737389767.433;104;40.00;36567.33
1737389767.484;104;40.00;36567.33
1737389767.533;104;40.00;36459.20
1737389767.584;106;40.00;36908.13
1737389767.634;97;40.00;35242.67
1737389767.684;97;40.00;35242.67
1737389767.734;114;40.00;38310.40
1737389767.784;113;40.00;38023.73
1737389767.834;113;40.00;38023.73
1737389767.884;113;40.00;38023.73
1737389767.934;115;40.00;38488.80
1737389767.985;96;40.00;35100.54
1737389768.035;96;40.00;35100.54
1737389768.084;96;40.00;35100.54
1737389768.136;98;40.00;35382.13
1737389768.185;98;40.00;35382.13
1737389768.241;98;40.00;35382.13
1737389768.290;104;40.00;36554.93
1737389768.339;100;40.00;35830.93
1737389768.390;100;40.00;35830.93
1737389768.440;100;40.00;35830.93
1737389768.491;105;40.00;36705.20
1737389768.541;107;40.00;36957.33
1737389768.591;107;40.00;36957.33
1737389768.641;94;40.00;34792.40
1737389768.691;112;40.00;37963.07
1737389768.741;112;40.00;37963.07
1737389768.792;112;40.00;37963.07
1737389768.841;112;40.00;37901.07
1737389768.892;116;40.00;38541.87
1737389768.942;116;40.00;38541.87
1737389768.992;116;40.00;38541.87
1737389779.145;94;40.00;34784.27
1737389779.194;94;40.00;34784.27
1737389779.244;94;40.00;34784.27
1737389779.295;93;40.00;34664.54
1737389779.344;115;40.00;38438.93
1737389779.394;115;40.00;38438.93
1737389779.444;108;40.00;37180.27
1737389779.494;107;40.00;37065.33
1737389779.545;107;40.00;37065.33
1737389779.596;107;40.00;37065.33
1737389779.646;111;40.00;37761.73
1737389779.695;110;40.00;37600.54
1737389779.746;110;40.00;37600.54
1737389779.795;110;40.00;37600.54
1737389779.846;110;40.00;37510.27
1737389779.896;110;40.00;37510.27
1737389779.945;110;40.00;37510.27
1737389779.996;109;40.00;37416.00
1737389780.046;109;40.00;37416.00
1737389780.096;109;40.00;37416.00
1737389780.151;104;40.00;36537.80
1737389780.199;104;40.00;36537.80
1737389780.249;104;40.00;36537.80
1737389780.299;104;40.00;36537.80
1737389780.349;101;40.00;35961.07
1737389780.399;101;40.00;35961.07
1737389780.449;101;40.00;35961.07
1737389780.499;110;40.00;37610.80
1737389780.549;104;40.00;36446.13
1737389780.599;104;40.00;36446.13
1737389780.649;96;40.00;35112.00
1737389780.699;106;40.00;36809.87
1737389780.748;106;40.00;36809.87
1737389780.800;106;40.00;36809.87
1737389780.849;97;40.00;35317.07
1737389780.900;97;40.00;35317.07
1737389780.950;97;40.00;35317.07
1737389781.000;96;40.00;35173.73
1737389781.050;96;40.00;35173.73
1737389781.100;96;40.00;35173.73
1737389781.150;107;40.00;37076.80
1737389781.200;104;40.00;36465.33
1737389781.250;104;40.00;36465.33
1737389781.301;104;40.00;36465.33
1737389781.351;100;40.00;35743.73
1737389781.401;100;40.00;35743.73
1737389781.451;100;40.00;35743.73
1737389781.501;100;40.00;35743.73
1737389781.551;115;40.00;38481.33
1737389781.601;110;40.00;37631.07
1737389781.651;110;40.00;37631.07
1737389781.701;110;40.00;37631.07
1737389781.751;103;40.00;36400.00
1737389781.801;108;40.00;37131.20
1737389781.851;108;40.00;37131.20
1737389781.901;108;40.00;37131.20
1737389781.951;109;40.00;37359.20
1737389782.002;109;40.00;37359.20
1737389782.052;109;40.00;37359.20
1737389782.101;98;40.00;35520.60
1737389782.152;101;40.00;35899.73
1737389782.201;101;40.00;35899.73
1737389782.253;101;40.00;35899.73
1737389782.303;100;40.00;35838.40
1737389782.352;111;40.00;37746.00
1737389782.402;111;40.00;37746.00
1737389782.453;111;40.00;37746.00
1737389782.503;109;40.00;37404.13
1737389782.553;110;40.00;37515.46
1737389782.602;110;40.00;37515.46
1737389782.653;110;40.00;37515.46
1737389782.702;93;40.00;34608.20
1737389782.752;114;40.00;38243.20
1737389782.803;114;40.00;38243.20
1737389782.853;114;40.00;38243.20
1737389782.902;101;40.00;36064.54
1737389782.953;100;40.00;35826.67
1737389783.003;100;40.00;35826.67
1737389783.053;96;40.00;35121.60
1737389783.103;104;40.00;36518.40
1737389783.153;104;40.00;36518.40
1737389783.203;104;40.00;36518.40
1737389783.252;111;40.00;37766.87
1737389783.303;106;40.00;36917.73
1737389783.354;106;40.00;36917.73
1737389783.403;106;40.00;36917.73
1737389783.455;92;40.00;34388.54
1737389783.504;92;40.00;34388.54
1737389783.554;92;40.00;34388.54
1737389783.605;110;40.00;37628.67
1737389783.654;93;40.00;34590.80
1737389783.705;93;40.00;34590.80
1737389783.755;93;40.00;34590.80
1737389783.810;111;40.00;37698.40
1737389783.857;111;40.00;37744.27
1737389783.907;111;40.00;37744.27
1737389783.957;110;40.00;37590.80
1737389784.007;103;40.00;36376.00
1737389794.113;91;40.00;34162.67
1737389794.163;91;40.00;34162.67
1737389794.213;91;40.00;34162.67
1737389794.263;107;40.00;37084.27
1737389794.313;107;40.00;37084.27
1737389794.363;107;40.00;37084.27
1737389794.413;110;40.00;37468.67
1737389794.464;112;40.00;37977.20
1737389794.514;112;40.00;37977.20
1737389794.565;108;40.00;37273.87
1737389794.615;104;40.00;36497.73
1737389794.665;104;40.00;36497.73
1737389794.715;104;40.00;36497.73
1737389794.766;110;40.00;37627.33
1737389794.815;111;40.00;37652.27
1737389794.867;111;40.00;37652.27
1737389794.917;111;40.00;37652.27
1737389794.966;103;40.00;36343.07
1737389795.017;94;40.00;34838.27
1737389795.067;97;40.00;35220.93
1737389795.117;97;40.00;35220.93
1737389795.166;107;40.00;36973.60
1737389795.216;96;40.00;35046.40
1737389795.266;96;40.00;35046.40
1737389795.317;96;40.00;35046.40
1737389795.368;109;40.00;37384.93
1737389795.419;98;40.00;35404.67
1737389795.468;98;40.00;35404.67
1737389795.518;98;40.00;35404.67
1737389795.569;95;40.00;35008.27
1737389795.620;95;40.00;35008.27
1737389795.669;95;40.00;35008.27
1737389795.720;95;40.00;35008.27
1737389795.769;111;40.00;37744.67
1737389795.820;111;40.00;37744.67
1737389795.869;111;40.00;37744.67
1737389795.919;103;40.00;36392.40
1737389795.970;103;40.00;36392.40
1737389796.020;103;40.00;36392.40
1737389796.070;99;40.00;35684.80
1737389796.120;99;40.00;35684.80
1737389796.170;99;40.00;35684.80
1737389796.221;113;40.00;38017.33
1737389796.270;113;40.00;38017.33
1737389796.320;113;40.00;38017.33
1737389796.370;97;40.00;35238.67
1737389796.420;97;40.00;35238.67
1737389796.471;97;40.00;35238.67
1737389796.521;93;40.00;34676.27
1737389796.571;117;40.00;38806.80
1737389796.621;117;40.00;38806.80
1737389796.672;105;40.00;36760.67
1737389796.721;109;40.00;37302.80
1737389796.771;93;40.00;34590.40
1737389796.822;93;40.00;34590.40
1737389796.871;110;40.00;37590.93
1737389796.921;95;40.00;34865.33
1737389796.973;97;40.00;35257.33
1737389797.023;97;40.00;35257.33
1737389797.072;97;40.00;35257.33
1737389797.122;100;40.00;35830.27
1737389797.172;102;40.00;36202.13
1737389797.223;102;40.00;36202.13
1737389797.272;115;40.00;38433.46
1737389797.322;97;40.00;35353.27
1737389797.373;97;40.00;35353.27
1737389797.422;97;40.00;35353.27
1737389797.473;110;40.00;37614.40
1737389797.522;110;40.00;37614.40
1737389797.572;110;40.00;37614.40
1737389797.622;98;40.00;35448.67
1737389797.673;95;40.00;34910.40
1737389797.723;95;40.00;34910.40
1737389797.773;109;40.00;37381.46
1737389797.823;103;40.00;36339.33
1737389797.873;103;40.00;36339.33
1737389797.924;103;40.00;36339.33
1737389797.973;98;40.00;35389.20
1737389798.025;98;40.00;35389.20
1737389798.075;98;40.00;35389.20
1737389798.124;104;40.00;36481.60
1737389798.174;104;40.00;36481.60
1737389798.225;104;40.00;36481.60
1737389798.275;91;40.00;34331.73
1737389798.325;92;40.00;34389.60
1737389798.374;92;40.00;34389.60
1737389798.425;101;40.00;36028.27
1737389798.475;100;40.00;35868.54
1737389798.525;100;40.00;35868.54
1737389798.574;110;40.00;37534.54
1737389798.625;110;40.00;37534.54
1737389798.676;110;40.00;37534.54
1737389798.726;108;40.00;37181.07
1737389917.667;350;14.93;34610.13
1737389917.718;350;14.93;34610.13
1737389917.768;350;14.93;34610.13
1737389917.820;350;17.23;37197.87
1737389917.869;350;15.11;34808.67
1737389917.920;350;15.11;34808.67
1737389917.970;350;15.11;34808.67
1737389918.020;350;17.96;38025.46
1737389918.071;350;16.12;35949.20
1737389918.120;350;16.12;35949.20
1737389918.170;350;16.12;35949.20
1737389918.221;350;16.78;36690.67
1737389918.270;350;16.93;36861.73
1737389918.320;350;16.93;36861.73
1737389918.370;350;16.93;36861.73
1737389918.421;350;16.81;36727.20
1737389918.470;350;17.38;37366.27
1737389918.521;350;17.38;37366.27
1737389918.570;350;17.38;37366.27
1737389918.621;350;17.67;37693.87
1737389918.671;350;17.24;37207.33
1737389918.721;350;17.24;37207.33
1737389918.771;350;17.24;37207.33
1737389918.821;350;16.55;36438.80
1737389918.871;350;16.26;36111.07
1737389918.921;350;16.26;36111.07
1737389918.971;350;16.26;36111.07
1737389919.026;350;18.30;38405.20
1737389919.074;350;18.20;38295.87
1737389919.124;350;18.20;38295.87
1737389919.174;350;18.20;38295.87
1737389919.224;350;17.02;36966.93
1737389919.275;350;17.02;36966.93
1737389919.325;350;17.02;36966.93
1737389919.375;350;17.56;37577.87
1737389919.425;350;17.91;37967.46
1737389919.474;350;17.91;37967.46
1737389919.525;350;16.31;36163.67
1737389919.574;350;16.31;36163.67
1737389919.625;350;16.31;36163.67
1737389919.675;350;17.55;37567.60
1737389919.725;350;17.18;37144.54
1737389919.776;350;17.18;37144.54
1737389919.826;350;18.09;38176.00
1737389919.876;350;18.00;38070.54
1737389919.926;350;18.00;38070.54
1737389919.976;350;18.00;38070.54
1737389920.026;350;17.35;37333.87
1737389920.076;350;17.35;37333.87
1737389920.126;350;17.35;37333.87
1737389920.176;350;17.46;37465.07
1737389920.226;350;17.46;37465.07
1737389920.276;350;17.46;37465.07
1737389920.326;350;18.07;38144.27
1737389920.376;350;17.27;37241.73
1737389920.426;350;17.27;37241.73
1737389920.476;350;17.21;37175.60
1737389920.527;350;17.02;36964.27
1737389920.578;350;17.02;36964.27
1737389920.627;350;17.02;36964.27
1737389920.678;350;18.07;38150.93
1737389920.729;350;18.07;38150.93
1737389920.779;350;18.07;38150.93
1737389920.828;350;17.07;37016.93
1737389920.880;350;17.07;37016.93
1737389920.930;350;17.07;37016.93
1737389920.980;350;17.07;37016.93
1737389921.030;350;17.34;37329.46
1737389921.080;350;17.34;37329.46
1737389921.130;350;17.34;37329.46
1737389921.179;350;17.34;37329.46
1737389921.230;350;17.05;36996.27
1737389921.280;350;17.05;36996.27
1737389921.330;350;17.05;36996.27
1737389921.386;350;17.81;37854.27
1737389921.434;350;17.81;37854.27
1737389921.484;350;17.81;37854.27
1737389921.534;350;16.64;36535.07
1737389921.584;350;16.32;36170.93
1737389921.634;350;16.32;36170.93
1737389921.684;350;16.32;36170.93
1737389921.734;350;17.84;37888.20
1737389921.784;350;17.84;37888.20
1737389921.834;350;17.84;37888.20
1737389921.885;350;17.84;37888.20
1737389921.934;350;18.36;38471.07
1737389921.985;350;18.36;38471.07
1737389922.035;350;18.36;38471.07
1737389922.086;350;18.73;38896.13
1737389922.137;350;17.14;37094.80
1737389922.187;350;17.14;37094.80
1737389922.237;350;17.14;37094.80
1737389922.287;350;15.88;35678.27
1737389932.482;350;15.80;35587.20
1737389932.531;350;15.80;35587.20
1737389932.581;350;15.80;35587.20
1737389932.632;350;14.70;34344.40
1737389932.682;350;18.15;38242.40
1737389932.732;350;18.15;38242.40
1737389932.782;350;18.15;38242.40
1737389932.832;350;15.40;35142.40
1737389932.883;350;15.40;35142.40
1737389932.933;350;15.40;35142.40
1737389932.983;350;16.18;36022.40
1737389933.033;350;16.18;36022.40
1737389933.083;350;16.18;36022.40
1737389933.133;350;15.11;34808.00
1737389933.183;350;15.11;34808.00
1737389933.233;350;15.11;34808.00
1737389933.283;350;15.84;35638.40
1737389933.333;350;15.84;35638.40
1737389933.383;350;15.84;35638.40
1737389933.433;350;17.14;37101.87
1737389933.484;350;17.14;37101.87
1737389933.534;350;17.14;37101.87
1737389933.585;350;16.05;35864.80
1737389933.634;350;16.78;36688.40
1737389933.685;350;16.78;36688.40
1737389933.734;350;16.78;36688.40
1737389933.785;350;16.99;36927.60
1737389933.835;350;17.81;37859.46
1737389933.884;350;17.81;37859.46
1737389933.934;350;17.81;37859.46
1737389933.984;350;15.81;35599.87
1737389934.035;350;16.75;36665.20
1737389934.084;350;16.75;36665.20
1737389934.134;350;16.75;36665.20
1737389934.185;350;17.89;37950.54
1737389934.235;350;16.75;36665.20
1737389934.285;350;16.75;36665.20
1737389934.334;350;17.71;37744.54
1737389934.385;350;16.86;36781.60
1737389934.436;350;16.86;36781.60
1737389934.486;350;16.86;36781.60
1737389934.535;350;17.36;37349.33
1737389934.586;350;15.84;35637.87
1737389934.635;350;15.84;35637.87
1737389934.685;350;15.84;35637.87
1737389934.737;350;16.30;36150.54
1737389934.787;350;18.29;38400.40
1737389934.837;350;18.29;38400.40
1737389934.888;350;18.29;38400.40
1737389934.937;350;16.09;35918.93
1737389934.988;350;15.02;34713.87
1737389935.037;350;15.02;34713.87
1737389935.087;350;15.02;34713.87
1737389935.139;350;15.28;35000.93
1737389935.189;350;15.51;35262.27
1737389935.239;350;15.51;35262.27
1737389935.288;350;15.51;35262.27
1737389935.339;350;16.41;36273.87
1737389935.389;350;16.41;36273.87
1737389935.439;350;16.41;36273.87
1737389935.489;350;15.29;35014.13
1737389935.538;350;15.29;35014.13
1737389935.589;350;15.29;35014.13
1737389935.640;350;17.50;37508.67
1737389935.689;350;15.81;35594.40
1737389935.739;350;15.81;35594.40
1737389935.790;350;15.81;35594.40
1737389935.839;350;18.70;38857.87
1737389935.889;350;17.91;37969.33
1737389935.939;350;17.91;37969.33
1737389935.990;350;17.91;37969.33
1737389936.039;350;16.97;36912.07
1737389936.090;350;16.97;36912.07
1737389936.140;350;16.97;36912.07
1737389936.189;350;15.91;35709.07
1737389936.239;350;17.86;37910.67
1737389936.289;350;17.86;37910.67
1737389936.340;350;16.61;36497.87
1737389936.389;350;16.20;36036.54
1737389936.440;350;16.20;36036.54
1737389936.490;350;16.20;36036.54
1737389936.539;350;17.64;37660.80
1737389936.590;350;17.17;37131.87
1737389936.639;350;17.17;37131.87
1737389936.689;350;17.17;37131.87
1737389936.740;350;17.50;37505.46
1737389936.790;350;18.22;38320.80
1737389936.839;350;18.22;38320.80
1737389936.890;350;18.22;38320.80
1737389936.939;350;17.83;37878.40
1737389936.989;350;16.85;36777.07
1737389937.040;350;16.85;36777.07
1737389937.090;350;16.85;36777.07
1737389937.139;350;17.91;37969.20
1737389937.190;350;17.91;37969.20
1737389937.239;350;17.91;37969.20
1737389937.290;350;18.56;38705.46
1737389947.511;350;14.51;34136.67
1737389947.561;350;14.51;34136.67
1737389947.611;350;14.51;34136.67
1737389947.662;350;15.58;35344.93
1737389947.712;350;15.58;35344.93
1737389947.762;350;15.58;35344.93
1737389947.812;350;16.89;36821.73
1737389947.863;350;16.89;36821.73
1737389947.913;350;16.89;36821.73
1737389947.962;350;17.96;38026.54
1737389948.013;350;17.96;38026.54
1737389948.062;350;17.96;38026.54
1737389948.112;350;18.14;38223.07
1737389948.163;350;17.38;37370.40
1737389948.212;350;17.38;37370.40
1737389948.263;350;17.38;37370.40
1737389948.313;350;16.47;36344.40
1737389948.362;350;16.47;36344.40
1737389948.412;350;16.47;36344.40
1737389948.462;350;17.95;38013.33
1737389948.513;350;16.92;36855.46
1737389948.563;350;16.92;36855.46
1737389948.613;350;16.92;36855.46
1737389948.663;350;18.38;38493.07
1737389948.714;350;16.43;36294.54
1737389948.763;350;16.43;36294.54
1737389948.814;350;16.43;36294.54
1737389948.863;350;16.99;36925.73
1737389948.913;350;16.99;36925.73
1737389948.963;350;16.99;36925.73
1737389949.013;350;16.99;36925.73
1737389949.063;350;16.21;36045.33
1737389949.115;350;16.21;36045.33
1737389949.165;350;16.21;36045.33
1737389949.215;350;17.01;36953.33
1737389949.265;350;17.01;36953.33
1737389949.315;350;17.01;36953.33
1737389949.365;350;17.54;37551.33
1737389949.415;350;17.54;37551.33
1737389949.465;350;17.54;37551.33
1737389949.516;350;18.75;38912.27
1737389949.566;350;18.75;38912.27
1737389949.616;350;18.75;38912.27
1737389949.665;350;17.41;37406.27
1737389949.716;350;17.41;37406.27
1737389949.766;350;17.41;37406.27
1737389949.817;350;18.56;38696.54
1737389949.868;350;15.58;35344.80
1737389949.918;350;15.58;35344.80
1737389949.968;350;15.58;35344.80
1737389950.017;350;15.06;34751.73
1737389950.068;350;15.06;34751.73
1737389950.118;350;15.06;34751.73
1737389950.168;350;16.68;36575.73
1737389950.217;350;15.70;35470.54
1737389950.267;350;16.51;36391.60
1737389950.318;350;16.51;36391.60
1737389950.368;350;17.58;37594.27
1737389950.418;350;14.98;34658.54
1737389950.468;350;15.89;35687.20
1737389950.517;350;15.89;35687.20
1737389950.569;350;16.27;36112.80
1737389950.619;350;17.91;37972.93
1737389950.669;350;18.01;38077.20
1737389950.718;350;18.01;38077.20
1737389950.769;350;15.79;35573.73
1737389950.819;350;17.70;37729.60
1737389950.869;350;17.70;37729.60
1737389950.920;350;17.70;37729.60
1737389950.970;350;16.22;36065.54
1737389951.022;350;16.08;35907.60
1737389951.071;350;16.16;35993.46
1737389951.124;350;16.16;35993.46
1737389951.171;350;16.16;35993.46
1737389951.222;350;15.39;35131.33
1737389951.273;350;15.29;35015.73
1737389951.322;350;15.29;35015.73
1737389951.373;350;16.02;35832.40
1737389951.423;350;16.20;36037.46
1737389951.473;350;16.20;36037.46
1737389951.522;350;16.20;36037.46
1737389951.573;350;17.90;37955.60
1737389951.622;350;17.97;38039.60
1737389951.674;350;17.97;38039.60
1737389951.723;350;18.80;38969.07
1737389951.773;350;15.12;34822.93
1737389951.823;350;15.12;34822.93
1737389951.874;350;17.86;37917.07
1737389951.924;350;17.58;37600.80
1737389951.975;350;17.58;37600.80
1737389952.024;350;14.81;34473.20
1737389952.075;350;15.48;35226.93
1737389952.125;350;15.48;35226.93
1737389952.174;350;15.48;35226.93
1737390067.384;91;10.00;34236.54
1737390067.434;91;10.00;34236.54
1737390067.483;91;10.00;34236.54
1737390067.534;92;10.00;34383.73
1737390067.584;96;10.00;35045.46
1737390067.635;96;10.00;35045.46
1737390067.684;93;10.00;34621.33
1737390067.734;97;10.00;35253.73
1737390067.784;97;10.00;35253.73
1737390067.834;97;10.00;35253.73
1737390067.884;109;10.00;37298.00
1737390067.934;96;10.00;35161.73
1737390067.984;96;10.00;35161.73
1737390068.034;96;10.00;35161.73
1737390068.084;92;10.00;34459.33
1737390068.134;99;10.00;35694.93
1737390068.184;99;10.00;35694.93
1737390068.234;99;10.00;35694.93
1737390068.284;95;10.00;35024.27
1737390068.334;95;10.00;35024.00
1737390068.385;95;10.00;35024.00
1737390068.434;95;10.00;35024.00
1737390068.485;92;10.00;34391.07
1737390068.535;105;10.00;36694.00
1737390068.584;105;10.00;36694.00
1737390068.636;105;10.00;36694.00
1737390068.685;92;10.00;34409.87
1737390068.735;103;10.00;36349.20
1737390068.785;103;10.00;36349.20
1737390068.835;103;10.00;36349.20
1737390068.885;98;10.00;35536.93
1737390068.935;103;10.00;36386.13
1737390068.985;103;10.00;36386.13
1737390069.036;103;10.00;36386.13
1737390069.085;107;10.00;37096.27
1737390069.136;108;10.00;37201.33
1737390069.185;108;10.00;37201.33
1737390069.236;108;10.00;37201.33
1737390069.285;98;10.00;35410.54
1737390069.337;98;10.00;35410.54
1737390069.386;98;10.00;35410.54
1737390069.436;98;10.00;35440.54
1737390069.486;98;10.00;35440.54
1737390069.537;98;10.00;35440.54
1737390069.587;96;10.00;35185.87
1737390069.637;102;10.00;36236.13
1737390069.687;102;10.00;36236.13
1737390069.737;102;10.00;36236.13
1737390069.796;93;10.00;34512.93
1737390069.837;95;10.00;34953.87
1737390069.887;95;10.00;34953.87
1737390069.937;95;10.00;34953.87
1737390069.988;107;10.00;37013.20
1737390070.038;100;10.00;35778.67
1737390070.089;100;10.00;35778.67
1737390070.138;100;10.00;35778.67
1737390070.188;98;10.00;35525.07
1737390070.238;94;10.00;34779.87
1737390070.288;94;10.00;34779.87
1737390070.340;94;10.00;34779.87
1737390070.389;97;10.00;35308.46
1737390070.439;97;10.00;35308.46
1737390070.490;97;10.00;35308.46
1737390070.539;97;10.00;35308.46
1737390070.590;104;10.00;36579.87
1737390070.641;104;10.00;36579.87
1737390070.691;104;10.00;36579.87
1737390070.740;99;10.00;35668.67
1737390070.790;109;10.00;37398.67
1737390070.842;109;10.00;37398.67
1737390070.892;109;10.00;37398.67
1737390070.942;95;10.00;35010.13
1737390070.992;97;10.00;35304.27
1737390071.042;97;10.00;35304.27
1737390071.092;101;10.00;35998.40
1737390071.141;92;10.00;34462.67
1737390071.192;98;10.00;35398.80
1737390071.242;98;10.00;35398.80
1737390071.292;98;10.00;35398.80
1737390071.345;106;10.00;36771.07
1737390071.392;105;10.00;36709.87
1737390071.442;105;10.00;36709.87
1737390071.492;105;10.00;36709.87
1737390071.542;105;10.00;36639.20
1737390071.592;99;10.00;35678.67
1737390071.642;99;10.00;35678.67
1737390071.692;102;10.00;36103.46
1737390071.742;90;10.00;33994.67
1737390071.792;90;10.00;33994.67
1737390071.842;90;10.00;33994.67
1737390071.892;94;10.00;34853.07
1737390071.942;92;10.00;34454.13
1737390071.992;92;10.00;34454.13
1737390072.042;97;10.00;35330.67
1737390082.156;91;10.00;34215.73
1737390082.207;91;10.00;34215.73
1737390082.257;91;10.00;34215.73
1737390082.307;90;10.00;34095.73
1737390082.357;90;10.00;34095.73
1737390082.408;90;10.00;34095.73
1737390082.458;102;10.00;36178.67
1737390082.507;104;10.00;36496.00
1737390082.557;104;10.00;36496.00
1737390082.608;100;10.00;35857.60
1737390082.658;100;10.00;35857.60
1737390082.708;100;10.00;35857.60
1737390082.757;101;10.00;36036.80
1737390082.808;101;10.00;36036.80
1737390082.858;101;10.00;36036.80
1737390082.909;102;10.00;36122.27
1737390082.958;102;10.00;36122.27
1737390083.009;102;10.00;36122.27
1737390083.059;105;10.00;36756.93
1737390083.109;106;10.00;36909.87
1737390083.160;106;10.00;36909.87
1737390083.210;112;10.00;37838.40
1737390083.259;103;10.00;36265.73
1737390083.310;103;10.00;36265.73
1737390083.360;103;10.00;36265.73
1737390083.409;101;10.00;36062.54
1737390083.460;101;10.00;36062.54
1737390083.509;101;10.00;36062.54
1737390083.560;101;10.00;35990.67
1737390083.610;108;10.00;37284.54
1737390083.660;108;10.00;37284.54
1737390083.711;106;10.00;36787.20
1737390083.761;107;10.00;36997.46
1737390083.812;107;10.00;36997.46
1737390083.862;107;10.00;36997.46
1737390083.912;99;10.00;35574.40
1737390083.962;94;10.00;34744.27
1737390084.011;94;10.00;34744.27
1737390084.062;94;10.00;34744.27
1737390084.112;96;10.00;35185.46
1737390084.162;96;10.00;35185.46
1737390084.213;96;10.00;35185.46
1737390084.263;97;10.00;35299.33
1737390084.312;97;10.00;35299.33
1737390084.363;97;10.00;35299.33
1737390084.412;101;10.00;35906.67
1737390084.463;101;10.00;35906.67
1737390084.513;101;10.00;35906.67
1737390084.564;99;10.00;35601.87
1737390084.614;104;10.00;36534.67
1737390084.664;104;10.00;36534.67
1737390084.713;106;10.00;36895.20
1737390084.763;107;10.00;36994.13
1737390084.814;107;10.00;36994.13
1737390084.864;107;10.00;36994.13
1737390084.914;101;10.00;35965.80
1737390084.964;101;10.00;35965.80
1737390085.014;101;10.00;35965.80
1737390085.064;104;10.00;36434.00
1737390085.115;104;10.00;36434.00
1737390085.165;104;10.00;36434.00
1737390085.215;100;10.00;35747.00
1737390085.266;100;10.00;35747.00
1737390085.315;100;10.00;35747.00
1737390085.365;95;10.00;34883.20
1737390085.417;98;10.00;35392.93
1737390085.466;98;10.00;35392.93
1737390085.516;100;10.00;35752.13
1737390085.567;94;10.00;34724.27
1737390085.616;94;10.00;34724.27
1737390085.666;94;10.00;34724.27
1737390085.716;105;10.00;36734.67
1737390085.767;105;10.00;36734.67
1737390085.816;105;10.00;36734.67
1737390085.866;95;10.00;34995.46
1737390085.917;95;10.00;34995.46
1737390085.968;95;10.00;34995.46
1737390086.017;105;10.00;36608.54
1737390086.069;105;10.00;36608.54
1737390086.119;105;10.00;36608.54
1737390086.168;105;10.00;36726.93
1737390096.110;101;10.00;35969.20
1737390096.161;98;10.00;35516.54
1737390096.210;98;10.00;35516.54
1737390096.261;95;10.00;34904.00
1737390096.312;95;10.00;34904.00
1737390096.362;95;10.00;34904.00
1737390096.412;108;10.00;37282.20
1737390096.462;108;10.00;37282.20
1737390096.512;108;10.00;37282.20
1737390096.562;100;10.00;35766.27
1737390096.612;97;10.00;35253.87
1737390096.662;97;10.00;35253.87
1737390096.711;103;10.00;36382.67
1737390096.762;97;10.00;35310.40
1737390096.812;97;10.00;35310.40
1737390096.862;105;10.00;36591.60
1737390096.912;95;10.00;34897.60
1737390096.962;95;10.00;34897.60
1737390097.012;103;10.00;36324.73
1737390097.062;104;10.00;36426.00
1737390097.112;104;10.00;36426.00
1737390097.162;104;10.00;36426.00
1737390097.211;112;10.00;37904.80
1737390097.261;112;10.00;37904.80
1737390097.312;112;10.00;37904.80
1737390097.362;105;10.00;36727.33
1737390097.412;105;10.00;36727.33
1737390097.462;105;10.00;36727.33
1737390097.514;100;10.00;35756.27
1737390097.562;96;10.00;35184.80
1737390097.612;96;10.00;35184.80
1737390097.662;96;10.00;35184.80
1737390097.712;99;10.00;35594.80
1737390097.762;99;10.00;35594.80
1737390097.812;99;10.00;35594.80
1737390097.862;108;10.00;37188.54
1737390097.912;97;10.00;35276.80
1737390097.962;97;10.00;35276.80
1737390098.012;101;10.00;36028.93
1737390098.062;101;10.00;35919.73
1737390098.112;101;10.00;35919.73
1737390098.162;101;10.00;35919.73
1737390098.212;101;10.00;36061.87
1737390098.262;101;10.00;36061.87
1737390098.312;101;10.00;36061.87
1737390098.362;105;10.00;36606.40
1737390098.412;98;10.00;35387.60
1737390098.462;98;10.00;35387.60
1737390098.512;96;10.00;35064.93
1737390098.563;101;10.00;35971.00
1737390098.612;101;10.00;35971.00
1737390098.662;101;10.00;35971.00
1737390098.712;101;10.00;36055.87
1737390098.762;101;10.00;36055.87
1737390098.812;101;10.00;36055.87
1737390098.864;107;10.00;36963.60
1737390098.913;99;10.00;35555.60
1737390098.963;99;10.00;35555.60
1737390099.013;102;10.00;36191.87
1737390099.063;99;10.00;35581.73
1737390099.113;99;10.00;35581.73
1737390099.163;99;10.00;35581.73
1737390099.214;104;10.00;36580.40
1737390099.263;104;10.00;36580.40
1737390099.313;104;10.00;36580.40
1737390099.363;93;10.00;34530.67
1737390099.413;108;10.00;37233.40
1737390099.463;108;10.00;37233.40
1737390099.513;108;10.00;37233.40
1737390099.563;98;10.00;35409.27
1737390099.613;93;10.00;34616.67
1737390099.664;93;10.00;34616.67
1737390099.713;103;10.00;36356.13
1737390099.763;110;10.00;37571.07
1737390099.813;104;10.00;36550.67
1737390099.863;104;10.00;36550.67
1737390099.913;105;10.00;36699.46
1737390099.963;103;10.00;36333.33
1737390100.013;103;10.00;36333.33
1737390100.063;110;10.00;37487.20
1737390100.113;92;10.00;34386.67
1737390100.165;92;10.00;34386.67
1737390100.214;95;10.00;34999.80
