UnixTimestamp;Microseconds;MilliAmpere;BaseValue
1725977978.065;500;1.00
1725977978.114;500;1.00
1725977978.163;500;1.00
1725977978.213;500;1.00
1725977978.263;500;1.00
1725977978.314;500;1.00
1725977978.364;500;1.00
1725977978.414;500;1.00
1725977978.463;500;1.00
1725977978.514;500;1.00
1725977978.564;500;1.00
1725977978.615;500;1.00
1725977978.665;500;1.00
1725977978.715;500;1.00
1725977978.765;500;1.00
1725977982.487;1;40.00
1725977982.537;1;40.00
1725977982.587;1;40.00
1725977982.637;1;40.00
1725977982.687;1;40.00
1725977982.737;1;40.00
1725977982.787;1;40.00
1725977982.836;1;40.00
1725977982.887;1;40.00
1725977982.937;1;40.00
1725977982.987;1;40.00
1725977983.037;1;40.00
1725977983.087;1;40.00
1725977983.137;1;40.00
1725977983.187;1;40.00
1725977983.237;1;40.00
1725977983.287;1;40.00
1725977983.337;1;40.00
1725977983.388;1;40.00
1725977983.438;1;40.00
1725977983.488;1;40.00
1725978404.502;350;14.27;37562.54
1725978404.552;350;12.67;34330.13
1725978404.602;350;12.67;34330.13
1725978404.652;350;12.67;34330.13
1725978404.702;350;12.75;34478.33
1725978404.751;350;13.64;36289.33
1725978404.802;350;14.64;38300.93
1725978404.852;350;14.64;38300.93
1725978404.902;350;13.35;35708.20
1725978404.951;350;14.83;38701.40
1725978405.002;350;15.88;40814.93
1725978405.052;350;15.88;40814.93
1725978405.101;350;14.95;38927.73
1725978405.152;350;13.86;36723.46
1725978405.201;350;15.73;40511.33
1725978405.252;350;15.73;40511.33
1725978405.301;350;15.60;40259.07
1725978405.351;350;16.03;41126.40
1725978405.402;350;13.70;36416.40
1725978405.452;350;13.70;36416.40
1725978405.501;350;13.70;36416.40
1725978405.552;350;15.30;39647.33
1725978405.602;350;16.00;41067.46
1725978405.652;350;16.00;41067.46
1725978405.701;350;15.86;40770.67
1725978405.751;350;13.16;35309.60
1725978405.802;350;13.47;35947.46
1725978405.852;350;13.47;35947.46
1725978405.902;350;13.47;35947.46
1725978405.952;350;15.97;41005.33
1725978406.002;350;15.92;40894.00
1725978406.051;350;15.92;40894.00
1725978406.102;350;15.92;40894.00
1725978406.151;350;15.22;39484.73
1725978406.202;350;15.22;39484.73
1725978406.251;350;15.22;39484.73
1725978406.302;350;13.79;36588.27
1725978406.351;350;12.83;34643.87
1725978406.402;350;12.81;34606.27
1725978406.452;350;12.81;34606.27
1725978406.502;350;15.83;40723.60
1725978406.552;350;15.91;40881.20
1725978406.602;350;15.91;40881.20
1725978406.652;350;15.91;40881.20
1725978406.704;350;15.43;39902.67
1725978406.754;350;16.04;41144.27
1725978406.804;350;16.04;41144.27
1725978406.854;350;16.04;41144.27
1725978406.903;350;15.59;40235.20
1725978406.954;350;15.95;40966.13
1725978407.004;350;15.70;40447.80
1725978407.054;350;15.70;40447.80
1725978407.104;350;15.70;40447.80
1725978407.154;350;15.71;40468.27
1725978407.204;350;15.97;40991.73
1725978407.254;350;15.97;40991.73
1725978407.304;350;15.97;40991.73
1725978407.355;350;16.19;41445.07
1725978407.406;350;13.05;35090.73
1725978407.456;350;13.05;35090.73
1725978407.506;350;13.05;35090.73
1725978407.555;350;16.02;41101.07
1725978407.606;350;14.84;38709.80
1725978407.656;350;14.84;38709.80
1725978407.706;350;14.84;38709.80
1725978407.756;350;13.23;35450.93
1725978407.806;350;13.23;35450.93
1725978407.856;350;13.23;35450.93
1725978407.906;350;14.27;37553.87
1725978407.956;350;12.87;34728.07
1725978408.007;350;13.19;35375.93
1725978408.057;350;13.19;35375.93
1725978408.107;350;15.24;39515.60
1725978408.157;350;12.98;34946.80
1725978408.207;350;12.98;34946.80
1725978408.257;350;12.98;34946.80
1725978408.309;350;16.45;41974.67
1725978408.359;350;15.92;40888.93
1725978408.409;350;15.92;40888.93
1725978408.459;350;15.92;40888.93
1725978408.509;350;14.75;38531.87
1725978408.559;350;13.63;36261.60
1725978408.609;350;13.63;36261.60
1725978408.659;350;13.63;36261.60
1725978408.709;350;13.32;35636.00
1725978408.759;350;13.17;35326.67
1725978408.809;350;13.17;35326.67
1725978408.859;350;13.17;35326.67
1725978408.909;350;15.67;40387.33
1725978408.959;350;15.74;40532.93
1725978409.009;350;15.27;39583.87
1725978409.059;350;15.27;39583.87
1725978409.109;350;15.27;39583.87
1725978409.159;350;15.61;40262.54
1725978409.209;350;15.38;39801.46
1725978409.259;350;15.38;39801.46
1725978409.309;350;15.38;39801.46
1725978409.359;350;15.45;39955.07
1725978409.409;350;12.92;34823.60
1725978409.459;350;12.92;34823.60
1725978409.509;350;12.92;34823.60
1725978409.559;350;15.93;40911.46
1725978409.609;350;13.21;35407.46
1725978409.659;350;13.21;35407.46
1725978409.709;350;13.21;35407.46
1725978409.759;350;12.95;34900.67
1725978421.730;350;13.71;36436.54
1725978421.781;350;13.71;36436.54
1725978421.831;350;13.71;36436.54
1725978421.882;350;12.78;34542.40
1725978421.931;350;15.18;39406.27
1725978421.981;350;15.18;39406.27
1725978422.032;350;15.18;39406.27
1725978422.082;350;15.70;40456.67
1725978422.132;350;15.62;40297.20
1725978422.188;350;15.62;40297.20
1725978422.237;350;15.59;40237.00
1725978422.287;350;14.99;39024.54
1725978422.337;350;14.99;39024.54
1725978422.387;350;14.99;39024.54
1725978422.437;350;16.07;41196.54
1725978422.487;350;14.65;38324.93
1725978422.537;350;14.65;38324.93
1725978422.587;350;14.65;38324.93
1725978422.637;350;15.50;40047.07
1725978422.688;350;14.65;38325.87
1725978422.738;350;14.65;38325.87
1725978422.787;350;14.65;38325.87
1725978422.838;350;15.33;39707.33
1725978422.888;350;12.96;34916.93
1725978422.939;350;12.96;34916.93
1725978422.988;350;12.96;34916.93
1725978423.039;350;12.96;34916.93
1725978423.089;350;14.18;37375.13
1725978423.139;350;15.73;40519.67
1725978423.189;350;15.73;40519.67
1725978423.240;350;15.73;40519.67
1725978423.290;350;13.24;35473.40
1725978423.339;350;14.17;37367.27
1725978423.389;350;16.38;41827.60
1725978423.439;350;16.38;41827.60
1725978423.489;350;16.38;41827.60
1725978423.539;350;14.28;37578.73
1725978423.590;350;15.23;39505.46
1725978423.640;350;15.23;39505.46
1725978423.690;350;15.23;39505.46
1725978423.740;350;15.84;40743.54
1725978423.791;350;16.36;41794.13
1725978423.841;350;16.36;41794.13
1725978423.890;350;16.36;41794.13
1725978423.940;350;13.99;36990.93
1725978423.990;350;14.17;37364.93
1725978424.041;350;14.17;37364.93
1725978424.091;350;14.17;37364.93
1725978424.142;350;16.21;41491.07
1725978424.191;350;13.37;35745.60
1725978424.242;350;13.37;35745.60
1725978424.292;350;13.71;36435.73
1725978424.342;350;16.10;41266.13
1725978424.391;350;14.47;37967.00
1725978424.442;350;14.47;37967.00
1725978424.491;350;14.47;37967.00
1725978424.542;350;16.22;41502.13
1725978424.592;350;15.94;40934.80
1725978424.642;350;15.94;40934.80
1725978424.691;350;15.94;40934.80
1725978424.741;350;15.72;40498.00
1725978424.793;350;16.24;41533.87
1725978424.842;350;16.24;41533.87
1725978424.892;350;16.24;41533.87
1725978424.942;350;16.24;41533.87
1725978424.993;350;16.15;41351.73
1725978425.043;350;16.15;41351.73
1725978425.093;350;16.15;41351.73
1725978425.144;350;13.00;34984.80
1725978425.193;350;13.63;36256.40
1725978425.244;350;13.63;36256.40
1725978425.293;350;13.63;36256.40
1725978425.344;350;13.63;36256.40
1725978425.394;350;16.37;41815.73
1725978425.445;350;16.37;41815.73
1725978425.495;350;16.37;41815.73
1725978425.544;350;16.37;41815.73
1725978425.594;350;15.33;39694.00
1725978425.645;350;15.11;39259.46
1725978425.695;350;15.11;39259.46
1725978425.744;350;15.11;39259.46
1725978425.796;350;12.96;34918.54
1725978425.846;350;15.64;40331.93
1725978425.895;350;14.29;37594.54
1725978425.945;350;14.29;37594.54
1725978425.995;350;14.29;37594.54
1725978426.046;350;15.05;39142.93
1725978426.095;350;14.42;37862.13
1725978426.146;350;14.42;37862.13
1725978426.195;350;14.42;37862.13
1725978426.246;350;14.26;37545.67
1725978426.296;350;14.33;37684.54
1725978426.346;350;14.33;37684.54
1725978426.396;350;14.33;37684.54
1725978426.446;350;16.10;41262.80
1725978426.496;350;13.30;35606.54
1725978426.546;350;13.30;35606.54
1725978426.597;350;14.32;37669.87
1725978426.646;350;15.96;40982.80
1725978426.697;350;14.42;37855.20
1725978426.747;350;14.42;37855.20
1725978426.797;350;14.42;37855.20
1725978426.848;350;13.10;35185.07
1725978426.898;350;14.86;38744.93
1725978426.949;350;14.86;38744.93
1725978426.998;350;14.86;38744.93
1725978427.048;350;15.31;39667.73
1725978427.098;350;16.00;41059.73
1725978438.895;350;12.84;34676.67
1725978439.095;350;13.70;36414.00
1725978439.146;350;13.70;36414.00
1725978439.195;350;13.70;36414.00
1725978439.247;350;15.81;40669.87
1725978439.297;350;15.39;39829.54
1725978439.347;350;15.39;39829.54
1725978439.397;350;15.39;39829.54
1725978439.447;350;15.82;40694.67
1725978439.497;350;15.82;40694.67
1725978439.547;350;15.82;40694.67
1725978439.598;350;15.82;40694.67
1725978439.648;350;16.35;41771.20
1725978439.698;350;16.03;41120.33
1725978439.748;350;16.03;41120.33
1725978439.797;350;16.03;41120.33
1725978439.848;350;16.19;41434.40
1725978439.898;350;16.10;41262.80
1725978439.947;350;16.45;41967.20
1725978439.997;350;16.45;41967.20
1725978440.053;350;16.45;41967.20
1725978440.098;350;15.63;40315.87
1725978440.149;350;14.85;38728.00
1725978440.199;350;14.85;38728.00
1725978440.249;350;14.85;38728.00
1725978440.299;350;15.96;40979.60
1725978440.349;350;16.16;41384.46
1725978440.399;350;15.28;39593.73
1725978440.449;350;15.28;39593.73
1725978440.500;350;15.28;39593.73
1725978440.550;350;13.23;35463.20
1725978440.600;350;13.48;35965.33
1725978440.650;350;13.48;35965.33
1725978440.700;350;13.48;35965.33
1725978440.750;350;14.14;37300.27
1725978440.800;350;15.68;40420.40
1725978440.850;350;15.68;40420.40
1725978440.900;350;15.68;40420.40
1725978440.950;350;15.75;40561.33
1725978441.000;350;13.19;35369.87
1725978441.051;350;13.72;36448.40
1725978441.100;350;13.72;36448.40
1725978441.151;350;15.92;40900.73
1725978441.201;350;14.66;38356.27
1725978441.251;350;14.66;38356.27
1725978441.301;350;14.66;38356.27
1725978441.351;350;14.80;38626.07
1725978441.402;350;15.55;40146.46
1725978441.451;350;15.60;40254.93
1725978441.502;350;15.60;40254.93
1725978441.552;350;15.54;40122.73
1725978441.602;350;14.88;38796.80
1725978441.652;350;14.06;37126.93
1725978441.702;350;14.06;37126.93
1725978441.752;350;14.06;37126.93
1725978441.802;350;15.82;40694.00
1725978441.851;350;16.25;41558.93
1725978441.902;350;16.25;41558.93
1725978441.951;350;16.25;41558.93
1725978442.002;350;15.77;40585.60
1725978442.052;350;15.82;40686.13
1725978442.102;350;15.82;40686.13
1725978442.151;350;15.82;40686.13
1725978442.202;350;15.33;39697.87
1725978442.252;350;15.96;40985.60
1725978442.303;350;15.96;40985.60
1725978442.353;350;15.72;40491.20
1725978442.402;350;15.44;39921.67
1725978442.453;350;14.31;37647.27
1725978442.504;350;14.31;37647.27
1725978442.554;350;15.65;40353.87
1725978442.604;350;15.80;40652.33
1725978442.654;350;15.94;40940.67
1725978442.703;350;15.94;40940.67
1725978442.754;350;14.60;38219.27
1725978442.804;350;15.60;40242.27
1725978442.854;350;15.63;40316.27
1725978442.904;350;15.63;40316.27
1725978442.955;350;15.63;40316.27
1725978443.005;350;13.98;36982.93
1725978443.054;350;14.38;37779.73
1725978443.105;350;14.38;37779.73
1725978443.155;350;14.38;37779.73
1725978443.205;350;15.94;40947.20
1725978443.255;350;15.72;40487.60
1725978443.306;350;15.72;40487.60
1725978443.356;350;15.72;40487.60
1725978443.405;350;15.61;40273.07
1725978443.455;350;15.29;39626.00
1725978443.506;350;15.29;39626.00
1725978443.556;350;15.29;39626.00
1725978443.606;350;14.23;37479.33
1725978443.656;350;13.51;36020.67
1725978443.706;350;13.51;36020.67
1725978443.755;350;13.51;36020.67
1725978443.805;350;16.02;41104.80
1725978443.855;350;13.61;36218.93
1725978443.906;350;13.61;36218.93
1725978443.955;350;13.61;36218.93
1725978444.006;350;14.79;38614.67
1725978444.056;350;15.46;39957.33
1725978444.106;350;15.46;39957.33
1725978444.156;350;15.46;39957.33
1725978444.206;350;15.46;39957.33
1725978444.255;350;15.93;40918.80
1725978444.306;350;14.98;38993.13
1725978444.356;350;14.98;38993.13
1725978444.405;350;14.98;38993.13
1725978444.457;350;16.41;41887.46
1725978444.507;350;14.72;38471.60
1725978704.558;55;20.00;34362.67
1725978704.608;53;20.00;34713.87
1725978704.658;53;20.00;34713.87
1725978704.758;51;20.00;35111.60
1725978704.809;51;20.00;35111.60
1725978704.859;46;20.00;36205.60
1725978704.908;37;20.00;38444.27
1725978704.959;37;20.00;38444.27
1725978705.009;37;20.00;38444.27
1725978705.059;36;20.00;38639.33
1725978705.109;53;20.00;34817.46
1725978705.159;53;20.00;34817.46
1725978705.208;53;20.00;34817.46
1725978705.258;25;20.00;41030.80
1725978705.309;45;20.00;36575.00
1725978705.358;31;20.00;39727.73
1725978705.408;31;20.00;39727.73
1725978705.459;31;20.00;39727.73
1725978705.508;46;20.00;36421.60
1725978705.559;40;20.00;37636.80
1725978705.609;46;20.00;36255.00
1725978705.659;48;20.00;35809.00
1725978705.709;48;20.00;35809.00
1725978705.759;48;20.00;35809.00
1725978705.808;55;20.00;34330.93
1725978705.860;54;20.00;34437.07
1725978705.909;38;20.00;38240.67
1725978705.960;32;20.00;39632.13
1725978706.010;44;20.00;36731.20
1725978706.060;44;20.00;36731.20
1725978706.109;44;20.00;36731.20
1725978706.159;49;20.00;35580.00
1725978706.211;30;20.00;40014.00
1725978706.261;32;20.00;39541.33
1725978706.311;32;20.00;39541.33
1725978706.361;32;20.00;39541.33
1725978706.410;47;20.00;36178.13
1725978706.461;41;20.00;37558.00
1725978706.510;39;20.00;37879.73
1725978706.561;39;20.00;37879.73
1725978706.611;39;20.00;37879.73
1725978706.661;29;20.00;40206.00
1725978706.712;40;20.00;37750.80
1725978706.763;35;20.00;38939.46
1725978706.813;35;20.00;38939.46
1725978706.863;35;20.00;38939.46
1725978706.913;37;20.00;38323.73
1725978706.963;36;20.00;38548.80
1725978707.013;36;20.00;38548.80
1725978707.062;36;20.00;38548.80
1725978707.113;45;20.00;36492.54
1725978707.314;49;20.00;35597.60
1725978707.364;49;20.00;35550.40
1725978707.414;49;20.00;35550.40
1725978707.464;49;20.00;35550.40
1725978707.515;42;20.00;37307.33
1725978707.564;26;20.00;40867.87
1725978707.615;26;20.00;40867.87
1725978707.665;26;20.00;40867.87
1725978707.714;33;20.00;39405.27
1725978707.764;40;20.00;37799.20
1725978707.814;49;20.00;35593.33
1725978707.864;49;20.00;35593.33
1725978707.915;49;20.00;35593.33
1725978707.965;51;20.00;35222.13
1725978708.015;49;20.00;35701.73
1725978708.065;49;20.00;35701.73
1725978708.115;49;20.00;35701.73
1725978708.165;30;20.00;40064.80
1725978708.215;27;20.00;40750.93
1725978708.266;27;20.00;40750.93
1725978708.315;27;20.00;40750.93
1725978708.366;48;20.00;35839.33
1725978708.415;44;20.00;36786.93
1725978708.466;44;20.00;36786.93
1725978708.515;44;20.00;36786.93
1725978708.565;34;20.00;39105.27
1725978708.616;42;20.00;37306.40
1725978708.666;42;20.00;37306.40
1725978708.716;42;20.00;37306.40
1725978708.767;42;20.00;37306.40
1725978708.817;27;20.00;40754.13
1725978708.867;47;20.00;36054.67
1725978708.916;47;20.00;36054.67
1725978708.967;47;20.00;36054.67
1725978709.017;35;20.00;38776.13
1725978709.067;40;20.00;37662.27
1725978709.117;45;20.00;36616.46
1725978709.167;45;20.00;36616.46
1725978709.217;45;20.00;36616.46
1725978709.267;44;20.00;36713.20
1725978709.317;39;20.00;37921.07
1725978709.367;39;20.00;37921.07
1725978709.417;39;20.00;37921.07
1725978709.467;47;20.00;36191.20
1725978709.517;37;20.00;38325.20
1725978709.567;37;20.00;38325.20
1725978709.617;37;20.00;38325.20
1725978709.717;49;20.00;35630.07
1725978709.767;49;20.00;35630.07
1725978709.818;49;20.00;35630.07
1725978709.868;54;20.00;34583.33
1725978709.918;36;20.00;38512.46
1725978709.968;36;20.00;38512.46
1725978710.018;36;20.00;38512.46
1725978710.068;46;20.00;36224.13
1725978721.979;52;20.00;35019.20
1725978722.029;52;20.00;35019.20
1725978722.079;51;20.00;35272.27
1725978722.129;54;20.00;34588.27
1725978722.179;54;20.00;34588.27
1725978722.229;54;20.00;34588.27
1725978722.279;36;20.00;38500.80
1725978722.329;33;20.00;39309.87
1725978722.379;33;20.00;39309.87
1725978722.429;45;20.00;36608.13
1725978722.479;48;20.00;35931.46
1725978722.529;33;20.00;39262.87
1725978722.579;33;20.00;39262.87
1725978722.629;48;20.00;35851.93
1725978722.679;29;20.00;40126.33
1725978722.730;53;20.00;34717.46
1725978722.780;53;20.00;34717.46
1725978722.830;53;20.00;34717.46
1725978722.881;31;20.00;39708.27
1725978722.930;23;20.00;41516.73
1725978722.980;23;20.00;41516.73
1725978723.030;23;20.00;41516.73
1725978723.081;40;20.00;37650.80
1725978723.130;34;20.00;39152.93
1725978723.181;34;20.00;39152.93
1725978723.231;34;20.00;39152.93
1725978723.280;37;20.00;38375.33
1725978723.330;40;20.00;37589.27
1725978723.381;40;20.00;37589.27
1725978723.430;40;20.00;37589.27
1725978723.480;44;20.00;36846.33
1725978723.530;35;20.00;38910.80
1725978723.580;35;20.00;38910.80
1725978723.631;35;20.00;38910.80
1725978723.682;46;20.00;36348.27
1725978723.732;41;20.00;37444.80
1725978723.781;41;20.00;37444.80
1725978723.831;41;20.00;37444.80
1725978723.882;47;20.00;35996.33
1725978723.932;33;20.00;39227.73
1725978723.982;33;20.00;39227.73
1725978724.032;33;20.00;39227.73
1725978724.088;37;20.00;38299.33
1725978724.135;39;20.00;38033.33
1725978724.185;39;20.00;38033.33
1725978724.235;39;20.00;38033.33
1725978724.286;40;20.00;37809.00
1725978724.336;49;20.00;35721.33
1725978724.386;49;20.00;35721.33
1725978724.436;49;20.00;35721.33
1725978724.487;40;20.00;37628.46
1725978724.537;25;20.00;41171.67
1725978724.588;25;20.00;41171.67
1725978724.637;25;20.00;41171.67
1725978724.738;44;20.00;36807.07
1725978724.788;44;20.00;36807.07
1725978724.838;44;20.00;36807.07
1725978724.889;51;20.00;35268.27
1725978724.938;30;20.00;40029.60
1725978724.988;30;20.00;40029.60
1725978725.038;30;20.00;40080.80
1725978725.089;52;20.00;34864.27
1725978725.139;48;20.00;35944.27
1725978725.189;48;20.00;35944.27
1725978725.240;48;20.00;35944.27
1725978725.291;48;20.00;35754.60
1725978725.340;27;20.00;40693.93
1725978725.390;27;20.00;40693.93
1725978725.440;27;20.00;40693.93
1725978725.490;29;20.00;40132.93
1725978725.540;38;20.00;38055.40
1725978725.590;38;20.00;38055.40
1725978725.640;38;20.00;38055.40
1725978725.690;50;20.00;35451.87
1725978725.740;43;20.00;36898.27
1725978725.790;43;20.00;36898.27
1725978725.840;43;20.00;36898.27
1725978725.890;24;20.00;41442.07
1725978725.940;41;20.00;37487.60
1725978725.990;41;20.00;37487.60
1725978726.040;41;20.00;37487.60
1725978726.090;49;20.00;35530.80
1725978726.140;39;20.00;37943.60
1725978726.190;39;20.00;37943.60
1725978726.240;39;20.00;37943.60
1725978726.290;49;20.00;35532.07
1725978726.340;29;20.00;40274.40
1725978726.391;29;20.00;40274.40
1725978726.441;29;20.00;40274.40
1725978726.541;39;20.00;38021.46
1725978726.591;39;20.00;38021.46
1725978726.642;39;20.00;38021.46
1725978726.693;51;20.00;35236.93
1725978726.743;46;20.00;36321.27
1725978726.793;46;20.00;36321.27
1725978726.843;46;20.00;36321.27
1725978726.894;48;20.00;35871.60
1725978726.943;41;20.00;37355.20
1725978726.993;41;20.00;37355.20
1725978727.045;41;20.00;37355.20
1725978727.095;49;20.00;35526.00
1725978727.145;47;20.00;36088.00
1725978727.195;47;20.00;36088.00
1725978727.247;50;20.00;35410.27
1725978727.297;29;20.00;40175.73
1725978739.335;52;20.00;34967.73
1725978739.386;52;20.00;34967.73
1725978739.435;52;20.00;34967.73
1725978739.486;52;20.00;34967.73
1725978739.536;52;20.00;34933.87
1725978739.586;51;20.00;35138.93
1725978739.636;51;20.00;35138.93
1725978739.687;33;20.00;39241.07
1725978739.737;49;20.00;35574.40
1725978739.787;49;20.00;35574.40
1725978739.837;49;20.00;35574.40
1725978739.888;54;20.00;34510.13
1725978739.938;27;20.00;40666.67
1725978739.988;27;20.00;40666.67
1725978740.038;27;20.00;40666.67
1725978740.088;47;20.00;36182.80
1725978740.138;33;20.00;39205.67
1725978740.188;33;20.00;39205.67
1725978740.239;33;20.00;39205.67
1725978740.288;34;20.00;39124.67
1725978740.338;53;20.00;34728.13
1725978740.389;53;20.00;34728.13
1725978740.440;53;20.00;34728.13
1725978740.540;36;20.00;38624.73
1725978740.590;36;20.00;38624.73
1725978740.642;36;20.00;38624.73
1725978740.691;31;20.00;39664.40
1725978740.740;45;20.00;36479.20
1725978740.790;45;20.00;36479.20
1725978740.840;45;20.00;36479.20
1725978740.890;45;20.00;36479.20
1725978740.941;49;20.00;35608.00
1725978740.991;37;20.00;38385.20
1725978741.041;37;20.00;38385.20
1725978741.090;37;20.00;38385.20
1725978741.142;52;20.00;35036.93
1725978741.192;43;20.00;36899.27
1725978741.241;43;20.00;36899.27
1725978741.291;43;20.00;36899.27
1725978741.341;30;20.00;39987.33
1725978741.391;45;20.00;36630.00
1725978741.441;45;20.00;36630.00
1725978741.492;45;20.00;36630.00
1725978741.542;49;20.00;35659.46
1725978741.592;36;20.00;38627.60
1725978741.641;36;20.00;38627.60
1725978741.691;36;20.00;38627.60
1725978741.741;32;20.00;39427.46
1725978741.791;40;20.00;37709.07
1725978741.841;47;20.00;35988.40
1725978741.892;47;20.00;35988.40
1725978741.942;47;20.00;35988.40
1725978741.992;47;20.00;36063.87
1725978742.042;54;20.00;34390.54
1725978742.093;54;20.00;34390.54
1725978742.143;54;20.00;34390.54
1725978742.192;54;20.00;34390.54
1725978742.244;30;20.00;39906.93
1725978742.294;44;20.00;36834.13
1725978742.344;44;20.00;36834.13
1725978742.395;44;20.00;36834.13
1725978742.444;38;20.00;38095.60
1725978742.495;38;20.00;38095.60
1725978742.545;38;20.00;38095.60
1725978742.595;38;20.00;38095.60
1725978742.645;28;20.00;40403.46
1725978742.695;28;20.00;40403.46
1725978742.745;28;20.00;40403.46
1725978742.795;40;20.00;37682.80
1725978742.845;40;20.00;37626.93
1725978742.896;40;20.00;37626.93
1725978742.945;40;20.00;37626.93
1725978742.996;43;20.00;37081.20
1725978743.045;52;20.00;34878.00
1725978743.095;52;20.00;34878.00
1725978743.146;52;20.00;34878.00
1725978743.196;52;20.00;34878.00
1725978743.245;41;20.00;37477.33
1725978743.296;40;20.00;37705.20
1725978743.345;40;20.00;37705.20
1725978743.395;40;20.00;37705.20
1725978743.445;51;20.00;35215.87
1725978743.495;36;20.00;38680.13
1725978743.546;36;20.00;38680.13
1725978743.597;36;20.00;38680.13
1725978743.646;31;20.00;39704.93
1725978743.697;31;20.00;39704.93
1725978743.746;31;20.00;39704.93
1725978743.797;35;20.00;38753.73
1725978743.847;40;20.00;37694.80
1725978743.897;40;20.00;37694.80
1725978743.947;40;20.00;37694.80
1725978743.997;40;20.00;37694.80
1725978744.047;42;20.00;37327.87
1725978744.097;42;20.00;37327.87
1725978744.147;42;20.00;37327.87
1725978744.198;31;20.00;39788.67
1725978744.249;35;20.00;38907.46
1725978744.298;39;20.00;37952.00
1725978744.349;39;20.00;37952.00
1725978744.398;39;20.00;37952.00
1725978744.449;41;20.00;37567.73
1725978744.498;41;20.00;37567.73
1725978744.548;41;20.00;37567.73
1725978744.598;41;20.00;37567.73
1725978744.648;44;20.00;36706.80
1725978744.698;44;20.00;36706.80
1725978744.748;44;20.00;36706.80
1725978744.798;44;20.00;36706.80
1725978903.518;41;30.00;37494.67
1725978903.568;41;30.00;37494.67
1725978903.618;41;30.00;37494.67
1725978903.669;35;30.00;38753.20
1725978903.719;35;30.00;38764.93
1725978903.769;35;30.00;38764.93
1725978903.820;35;30.00;38764.93
1725978903.869;35;30.00;38871.87
1725978903.921;35;30.00;38871.87
1725978903.970;35;30.00;38871.87
1725978904.021;35;30.00;38871.87
1725978904.071;55;30.00;34320.80
1725978904.120;43;30.00;37114.27
1725978904.171;43;30.00;37114.27
1725978904.221;43;30.00;37114.27
1725978904.271;43;30.00;36945.87
1725978904.320;43;30.00;36945.87
1725978904.371;43;30.00;36945.87
1725978904.421;43;30.00;36945.87
1725978904.470;44;30.00;36721.33
1725978904.522;26;30.00;40924.20
1725978904.571;26;30.00;40924.20
1725978904.621;26;30.00;40924.20
1725978904.672;48;30.00;35781.33
1725978904.721;49;30.00;35532.27
1725978904.772;43;30.00;37068.80
1725978904.821;43;30.00;37068.80
1725978904.872;38;30.00;38130.27
1725978904.921;52;30.00;34836.33
1725978905.121;47;30.00;36003.07
1725978905.173;46;30.00;36314.80
1725978905.223;46;30.00;36314.80
1725978905.273;53;30.00;34707.46
1725978905.323;28;30.00;40418.60
1725978905.373;28;30.00;40418.60
1725978905.423;28;30.00;40418.60
1725978905.472;51;30.00;35203.33
1725978905.522;54;30.00;34561.13
1725978905.574;46;30.00;36323.46
1725978905.623;46;30.00;36323.46
1725978905.674;46;30.00;36323.46
1725978905.724;39;30.00;37874.93
1725978905.774;28;30.00;40447.33
1725978905.823;28;30.00;40447.33
1725978905.874;28;30.00;40447.33
1725978905.923;36;30.00;38699.46
1725978905.973;44;30.00;36833.46
1725978906.024;44;30.00;36833.46
1725978906.073;44;30.00;36833.46
1725978906.123;38;30.00;38101.27
1725978906.173;54;30.00;34542.07
1725978906.224;54;30.00;34542.07
1725978906.273;53;30.00;34737.73
1725978906.324;52;30.00;34868.93
1725978906.474;43;30.00;36956.00
1725978906.525;54;30.00;34425.60
1725978906.575;54;30.00;34425.60
1725978906.624;54;30.00;34425.60
1725978906.675;43;30.00;37122.20
1725978906.725;51;30.00;35097.60
1725978906.774;42;30.00;37337.60
1725978906.825;42;30.00;37337.60
1725978906.875;53;30.00;34787.73
1725978906.924;37;30.00;38332.27
1725978906.976;51;30.00;35240.93
1725978907.025;51;30.00;35240.93
1725978907.077;51;30.00;35240.93
1725978907.127;33;30.00;39364.60
1725978907.327;39;30.00;38005.46
1725978907.377;53;30.00;34706.00
1725978907.427;53;30.00;34706.00
1725978907.477;53;30.00;34706.00
1725978907.527;36;30.00;38517.60
1725978907.577;45;30.00;36574.67
1725978907.627;45;30.00;36574.67
1725978907.727;46;30.00;36318.73
1725978907.777;52;30.00;34939.87
1725978907.827;52;30.00;34939.87
1725978907.877;52;30.00;34939.87
1725978907.927;50;30.00;35484.80
1725978907.977;50;30.00;35484.80
1725978908.027;50;30.00;35484.80
1725978908.127;49;30.00;35735.67
1725978908.178;54;30.00;34501.27
1725978908.227;54;30.00;34501.27
1725978908.278;50;30.00;35468.67
1725978908.328;34;30.00;39006.80
1725978908.378;49;30.00;35737.46
1725978908.429;49;30.00;35737.46
1725978908.478;49;30.00;35737.46
1725978908.529;49;30.00;35645.33
1725978908.578;46;30.00;36287.07
1725978908.628;46;30.00;36287.07
1725978908.678;46;30.00;36287.07
1725978908.728;43;30.00;36943.07
1725978921.035;45;30.00;36440.93
1725978921.085;45;30.00;36440.93
1725978921.136;45;30.00;36440.93
1725978921.236;41;30.00;37452.80
1725978921.285;51;30.00;35250.07
1725978921.337;51;30.00;35250.07
1725978921.387;47;30.00;35981.07
1725978921.437;49;30.00;35527.73
1725978921.487;51;30.00;35219.07
1725978921.537;51;30.00;35219.07
1725978921.587;35;30.00;38806.33
1725978921.637;41;30.00;37511.60
1725978921.687;41;30.00;37511.60
1725978921.737;41;30.00;37511.60
1725978921.787;49;30.00;35595.46
1725978921.837;39;30.00;37810.13
1725978921.887;39;30.00;37810.13
1725978921.937;39;30.00;37810.13
1725978921.987;30;30.00;40008.40
1725978922.038;30;30.00;39954.87
1725978922.087;30;30.00;39954.87
1725978922.138;30;30.00;39954.87
1725978922.188;52;30.00;34975.46
1725978922.238;47;30.00;36045.87
1725978922.288;43;30.00;37068.00
1725978922.339;43;30.00;37068.00
1725978922.389;43;30.00;37068.00
1725978922.439;44;30.00;36849.73
1725978922.489;28;30.00;40417.60
1725978922.540;27;30.00;40618.67
1725978922.589;27;30.00;40618.67
1725978922.639;27;30.00;40618.67
1725978922.689;51;30.00;35070.46
1725978922.889;48;30.00;35957.07
1725978922.939;50;30.00;35324.13
1725978922.989;50;30.00;35324.13
1725978923.040;50;30.00;35324.13
1725978923.089;44;30.00;36804.27
1725978923.139;44;30.00;36804.27
1725978923.189;44;30.00;36804.27
1725978923.239;34;30.00;39024.80
1725978923.290;38;30.00;38218.87
1725978923.339;38;30.00;38218.87
1725978923.390;38;30.00;38218.87
1725978923.440;34;30.00;39055.87
1725978923.489;31;30.00;39845.54
1725978923.539;31;30.00;39845.54
1725978923.590;31;30.00;39845.54
1725978923.640;27;30.00;40567.46
1725978923.690;46;30.00;36414.00
1725978923.741;46;30.00;36414.00
1725978923.790;46;30.00;36414.00
1725978923.840;32;30.00;39544.46
1725978923.890;26;30.00;40889.60
1725978923.940;26;30.00;40889.60
1725978923.990;26;30.00;40889.60
1725978924.040;38;30.00;38103.33
1725978924.091;42;30.00;37307.60
1725978924.141;42;30.00;37307.60
1725978924.191;42;30.00;37307.60
1725978924.241;51;30.00;35274.67
1725978924.291;45;30.00;36570.20
1725978924.341;45;30.00;36570.20
1725978924.391;45;30.00;36570.20
1725978924.441;44;30.00;36664.60
1725978924.492;26;30.00;40845.87
1725978924.542;26;30.00;40845.87
1725978924.591;25;30.00;41175.60
1725978924.643;37;30.00;38327.33
1725978924.692;44;30.00;36728.27
1725978924.742;44;30.00;36728.27
1725978924.792;46;30.00;36419.60
1725978924.842;38;30.00;38050.13
1725978924.892;44;30.00;36755.73
1725978924.942;44;30.00;36755.73
1725978924.992;39;30.00;37882.40
1725978925.043;44;30.00;36836.40
1725978925.092;44;30.00;36700.54
1725978925.143;44;30.00;36700.54
1725978925.193;44;30.00;36700.54
1725978925.243;45;30.00;36456.00
1725978925.293;46;30.00;36391.00
1725978925.343;46;30.00;36391.00
1725978925.393;46;30.00;36391.00
1725978925.443;47;30.00;36132.67
1725978925.492;39;30.00;37984.60
1725978925.543;39;30.00;37984.60
1725978925.593;39;30.00;37984.60
1725978925.643;28;30.00;40511.46
1725978925.693;52;30.00;34869.80
1725978925.743;52;30.00;34869.80
1725978925.793;52;30.00;34869.80
1725978925.843;49;30.00;35603.60
1725978925.893;48;30.00;35885.67
1725978925.943;48;30.00;35885.67
1725978925.993;48;30.00;35885.67
1725978926.043;20;30.00;42236.00
1725978926.093;50;30.00;35320.80
1725978926.144;50;30.00;35320.80
1725978926.193;50;30.00;35320.80
1725978926.245;35;30.00;38857.33
1725978938.851;54;30.00;34476.93
1725978938.901;55;30.00;34346.80
1725978938.951;55;30.00;34346.80
1725978939.001;55;30.00;34346.80
1725978939.051;52;30.00;34993.87
1725978939.102;51;30.00;35059.73
1725978939.152;51;30.00;35059.73
1725978939.203;51;30.00;35059.73
1725978939.253;33;30.00;39193.33
1725978939.303;34;30.00;39171.33
1725978939.353;34;30.00;39171.33
1725978939.403;34;30.00;39171.33
1725978939.453;40;30.00;37631.33
1725978939.503;38;30.00;38222.73
1725978939.553;38;30.00;38222.73
1725978939.604;38;30.00;38222.73
1725978939.704;33;30.00;39248.46
1725978939.754;33;30.00;39248.46
1725978939.803;33;30.00;39248.46
1725978939.904;46;30.00;36243.46
1725978939.955;46;30.00;36243.46
1725978940.004;47;30.00;35999.46
1725978940.055;43;30.00;36938.67
1725978940.105;42;30.00;37178.27
1725978940.155;42;30.00;37178.27
1725978940.204;44;30.00;36810.80
1725978940.255;51;30.00;35252.20
1725978940.305;29;30.00;40217.46
1725978940.354;29;30.00;40217.46
1725978940.405;29;30.00;40217.46
1725978940.455;40;30.00;37718.54
1725978940.505;38;30.00;38125.20
1725978940.555;38;30.00;38125.20
1725978940.605;38;30.00;38125.20
1725978940.656;27;30.00;40584.80
1725978940.705;40;30.00;37658.00
1725978940.755;40;30.00;37658.00
1725978940.807;40;30.00;37658.00
1725978940.857;39;30.00;37872.00
1725978940.907;33;30.00;39297.20
1725978940.957;33;30.00;39297.20
1725978941.007;33;30.00;39297.20
1725978941.057;35;30.00;38848.00
1725978941.107;30;30.00;39949.27
1725978941.157;30;30.00;39949.27
1725978941.207;30;30.00;39949.27
1725978941.257;46;30.00;36343.87
1725978941.307;27;30.00;40690.80
1725978941.357;27;30.00;40690.80
1725978941.407;27;30.00;40690.80
1725978941.457;44;30.00;36747.60
1725978941.507;43;30.00;37053.46
1725978941.557;43;30.00;37053.46
1725978941.607;43;30.00;37053.46
1725978941.657;34;30.00;38995.54
1725978941.707;34;30.00;39112.93
1725978941.757;34;30.00;39112.93
1725978941.807;34;30.00;39112.93
1725978941.857;47;30.00;35987.33
1725978941.907;33;30.00;39313.60
1725978941.957;33;30.00;39313.60
1725978942.008;33;30.00;39313.60
1725978942.058;33;30.00;39313.60
1725978942.107;45;30.00;36644.13
1725978942.158;45;30.00;36644.13
1725978942.207;45;30.00;36644.13
1725978942.258;37;30.00;38277.20
1725978942.308;45;30.00;36521.20
1725978942.358;45;30.00;36521.20
1725978942.408;45;30.00;36521.20
1725978942.458;51;30.00;35274.54
1725978942.508;51;30.00;35274.54
1725978942.558;51;30.00;35274.54
1725978942.608;36;30.00;38679.87
1725978942.658;51;30.00;35208.13
1725978942.708;51;30.00;35208.13
1725978942.758;51;30.00;35208.13
1725978942.808;42;30.00;37343.87
1725978942.858;27;30.00;40574.93
1725978942.908;27;30.00;40574.93
1725978942.958;27;30.00;40574.93
1725978943.009;44;30.00;36689.93
1725978943.059;32;30.00;39639.46
1725978943.109;41;30.00;37407.46
1725978943.159;41;30.00;37407.46
1725978943.209;41;30.00;37407.46
1725978943.259;46;30.00;36282.27
1725978943.309;35;30.00;38951.54
1725978943.360;35;30.00;38951.54
1725978943.410;35;30.00;38951.54
1725978943.459;33;30.00;39186.46
1725978943.510;28;30.00;40513.73
1725978943.559;44;30.00;36665.46
1725978943.610;44;30.00;36665.46
1725978943.659;44;30.00;36665.46
1725978943.711;35;30.00;38950.46
1725978943.761;44;30.00;36794.40
1725978943.810;29;30.00;40136.00
1725978943.861;29;30.00;40136.00
1725978943.911;29;30.00;40136.00
1725978943.962;30;30.00;40003.20
1725979096.403;36;10.00;38651.20
1725979096.455;42;10.00;37266.00
1725979096.504;43;10.00;37099.00
1725979096.554;43;10.00;37099.00
1725979096.604;43;10.00;37099.00
1725979096.653;49;10.00;35698.27
1725979096.703;44;10.00;36834.27
1725979096.753;44;10.00;36834.27
1725979096.804;44;10.00;36834.27
1725979096.855;48;10.00;35957.87
1725979096.904;38;10.00;38231.73
1725979096.955;38;10.00;38231.73
1725979097.006;39;10.00;37899.20
1725979097.057;50;10.00;35351.07
1725979097.106;43;10.00;36975.67
1725979097.157;43;10.00;36975.67
1725979097.207;41;10.00;37455.27
1725979097.256;40;10.00;37590.33
1725979097.307;39;10.00;37953.33
1725979097.357;39;10.00;37953.33
1725979097.407;34;10.00;38974.46
1725979097.458;40;10.00;37758.27
1725979097.507;52;10.00;34960.07
1725979097.559;52;10.00;34960.07
1725979097.608;52;10.00;34960.07
1725979097.659;50;10.00;35430.27
1725979097.709;34;10.00;39051.87
1725979097.758;34;10.00;39051.87
1725979097.809;34;10.00;39051.87
1725979097.858;28;10.00;40406.13
1725979097.909;45;10.00;36602.20
1725979097.958;45;10.00;36602.20
1725979098.009;45;10.00;36602.20
1725979098.059;32;10.00;39516.40
1725979098.109;32;10.00;39516.40
1725979098.159;32;10.00;39516.40
1725979098.209;40;10.00;37781.20
1725979098.259;43;10.00;36992.87
1725979098.309;43;10.00;36992.87
1725979098.359;43;10.00;36992.87
1725979098.409;32;10.00;39464.00
1725979098.459;35;10.00;38798.13
1725979098.510;35;10.00;38798.13
1725979098.560;35;10.00;38798.13
1725979098.609;48;10.00;35927.33
1725979098.666;39;10.00;37980.67
1725979098.713;48;10.00;35798.60
1725979098.763;48;10.00;35798.60
1725979098.814;48;10.00;35798.60
1725979098.864;38;10.00;38260.33
1725979098.914;38;10.00;38048.00
1725979098.964;38;10.00;38048.00
1725979099.014;38;10.00;38048.00
1725979099.064;52;10.00;34855.93
1725979099.114;54;10.00;34567.33
1725979099.164;54;10.00;34567.33
1725979099.214;54;10.00;34567.33
1725979099.264;44;10.00;36677.73
1725979099.314;49;10.00;35737.87
1725979099.364;49;10.00;35737.87
1725979099.414;49;10.00;35737.87
1725979099.464;40;10.00;37721.33
1725979099.514;40;10.00;37721.33
1725979099.565;40;10.00;37721.33
1725979099.616;31;10.00;39751.93
1725979099.665;42;10.00;37149.46
1725979099.715;42;10.00;37149.46
1725979099.765;42;10.00;37149.46
1725979099.815;39;10.00;37921.07
1725979099.866;37;10.00;38352.00
1725979099.915;37;10.00;38352.00
1725979099.967;37;10.00;38352.00
1725979100.018;34;10.00;38974.87
1725979100.067;41;10.00;37361.27
1725979100.118;41;10.00;37361.27
1725979100.168;41;10.00;37361.27
1725979100.218;50;10.00;35405.87
1725979100.268;29;10.00;40258.93
1725979100.318;29;10.00;40258.93
1725979100.368;29;10.00;40258.93
1725979100.417;40;10.00;37746.93
1725979100.468;37;10.00;38289.87
1725979100.518;37;10.00;38289.87
1725979100.568;37;10.00;38289.87
1725979100.618;31;10.00;39691.33
1725979100.667;47;10.00;36002.67
1725979100.718;52;10.00;34839.60
1725979100.768;52;10.00;34839.60
1725979100.819;51;10.00;35121.46
1725979100.869;54;10.00;34375.60
1725979100.919;54;10.00;34375.60
1725979100.969;54;10.00;34375.60
1725979101.019;54;10.00;34375.60
1725979101.070;42;10.00;37175.33
1725979101.120;46;10.00;36217.46
1725979101.170;46;10.00;36217.46
1725979101.221;46;10.00;36217.46
1725979101.271;46;10.00;36277.87
1725979101.322;36;10.00;38665.60
1725979101.371;36;10.00;38665.60
1725979101.422;36;10.00;38665.60
1725979101.472;36;10.00;38665.60
1725979101.522;46;10.00;36206.00
1725979101.572;47;10.00;36152.54
1725979101.622;47;10.00;36152.54
1725979101.672;45;10.00;36506.73
1725979101.722;53;10.00;34689.73
1725979113.716;54;10.00;34482.67
1725979113.967;41;10.00;37436.40
1725979114.016;46;10.00;36433.87
1725979114.068;46;10.00;36433.87
1725979114.117;46;10.00;36433.87
1725979114.169;39;10.00;37926.00
1725979114.218;32;10.00;39609.60
1725979114.268;32;10.00;39609.60
1725979114.318;32;10.00;39609.60
1725979114.368;42;10.00;37321.40
1725979114.418;42;10.00;37161.60
1725979114.468;42;10.00;37161.60
1725979114.519;42;10.00;37161.60
1725979114.569;44;10.00;36745.07
1725979114.618;47;10.00;36100.00
1725979114.669;47;10.00;36100.00
1725979114.719;47;10.00;36100.00
1725979114.769;35;10.00;38856.07
1725979114.820;40;10.00;37684.27
1725979114.870;40;10.00;37684.27
1725979114.920;40;10.00;37684.27
1725979114.970;50;10.00;35413.07
1725979115.020;41;10.00;37361.60
1725979115.070;41;10.00;37361.60
1725979115.121;41;10.00;37361.60
1725979115.172;53;10.00;34676.27
1725979115.222;54;10.00;34461.73
1725979115.273;54;10.00;34461.73
1725979115.322;54;10.00;34461.73
1725979115.373;48;10.00;35864.13
1725979115.422;46;10.00;36417.07
1725979115.473;50;10.00;35364.40
1725979115.522;50;10.00;35364.40
1725979115.572;50;10.00;35364.40
1725979115.622;42;10.00;37236.80
1725979115.672;43;10.00;37035.60
1725979115.723;43;10.00;37035.60
1725979115.773;43;10.00;37035.60
1725979115.822;54;10.00;34571.07
1725979115.873;44;10.00;36839.73
1725979115.922;44;10.00;36839.73
1725979115.972;44;10.00;36839.73
1725979116.022;42;10.00;37288.54
1725979116.073;40;10.00;37733.87
1725979116.122;40;10.00;37733.87
1725979116.172;40;10.00;37733.87
1725979116.222;48;10.00;35782.00
1725979116.272;39;10.00;37874.27
1725979116.322;39;10.00;37874.27
1725979116.372;39;10.00;37874.27
1725979116.424;42;10.00;37348.87
1725979116.474;46;10.00;36406.46
1725979116.624;41;10.00;37405.93
1725979116.674;47;10.00;36102.93
1725979116.724;47;10.00;36102.93
1725979116.775;47;10.00;36102.93
1725979116.824;41;10.00;37374.20
1725979116.874;40;10.00;37730.54
1725979116.924;40;10.00;37730.54
1725979116.974;40;10.00;37730.54
1725979117.025;47;10.00;36091.60
1725979117.076;55;10.00;34371.60
1725979117.126;52;10.00;34871.87
1725979117.176;52;10.00;34871.87
1725979117.226;39;10.00;37949.87
1725979117.277;40;10.00;37688.54
1725979117.327;43;10.00;37061.80
1725979117.377;43;10.00;37061.80
1725979117.427;43;10.00;37061.80
1725979117.476;43;10.00;37061.80
1725979117.527;42;10.00;37137.73
1725979117.576;51;10.00;35188.13
1725979117.626;43;10.00;36904.67
1725979117.677;43;10.00;36904.67
1725979117.727;53;10.00;34806.00
1725979117.777;50;10.00;35293.33
1725979117.827;50;10.00;35293.33
1725979117.877;50;10.00;35293.33
1725979117.927;36;10.00;38660.54
1725979117.978;40;10.00;37722.54
1725979118.027;40;10.00;37722.54
1725979118.077;40;10.00;37722.54
1725979118.127;34;10.00;39071.73
1725979118.178;32;10.00;39489.46
1725979118.228;32;10.00;39489.46
1725979118.278;32;10.00;39489.46
1725979118.328;54;10.00;34386.80
1725979118.378;50;10.00;35326.27
1725979118.428;42;10.00;37196.67
1725979118.478;42;10.00;37196.67
1725979118.528;42;10.00;37196.67
1725979118.579;51;10.00;35164.67
1725979118.629;40;10.00;37701.73
1725979118.679;40;10.00;37701.73
1725979118.730;40;10.00;37701.73
1725979118.780;40;10.00;37771.87
1725979118.829;43;10.00;37041.87
1725979118.880;43;10.00;37041.87
1725979118.930;43;10.00;37041.87
1725979119.029;40;10.00;37803.13
1725979119.080;40;10.00;37803.13
1725979119.130;40;10.00;37803.13
1725979119.180;40;10.00;37748.27
1725979131.381;48;10.00;35773.87
1725979131.431;48;10.00;35773.87
1725979131.481;48;10.00;35773.87
1725979131.530;50;10.00;35311.20
1725979131.581;44;10.00;36770.54
1725979131.632;42;10.00;37329.07
1725979131.682;42;10.00;37329.07
1725979131.732;42;10.00;37329.07
1725979131.782;43;10.00;36971.13
1725979131.831;51;10.00;35090.20
1725979131.882;51;10.00;35090.20
1725979131.932;51;10.00;35090.20
1725979131.981;31;10.00;39750.67
1725979132.033;48;10.00;35842.40
1725979132.082;48;10.00;35842.40
1725979132.133;48;10.00;35797.60
1725979132.183;37;10.00;38385.07
1725979132.233;52;10.00;34966.80
1725979132.283;52;10.00;34966.80
1725979132.333;52;10.00;34966.80
1725979132.386;44;10.00;36890.54
1725979132.433;50;10.00;35471.07
1725979132.483;50;10.00;35471.07
1725979132.534;50;10.00;35471.07
1725979132.583;43;10.00;36930.40
1725979132.633;47;10.00;36133.07
1725979132.684;47;10.00;36133.07
1725979132.734;47;10.00;36133.07
1725979132.784;38;10.00;38171.80
1725979132.834;38;10.00;38188.80
1725979132.885;38;10.00;38188.80
1725979132.934;38;10.00;38188.80
1725979132.984;49;10.00;35724.80
1725979133.035;49;10.00;35721.73
1725979133.084;49;10.00;35721.73
1725979133.135;49;10.00;35721.73
1725979133.184;47;10.00;36086.54
1725979133.235;47;10.00;36191.20
1725979133.285;47;10.00;36191.20
1725979133.335;47;10.00;36191.20
1725979133.386;52;10.00;35030.67
1725979133.436;38;10.00;38094.07
1725979133.486;38;10.00;38094.07
1725979133.536;38;10.00;38094.07
1725979133.587;35;10.00;38915.54
1725979133.637;45;10.00;36505.07
1725979133.687;45;10.00;36505.07
1725979133.737;38;10.00;38152.40
1725979133.787;42;10.00;37258.54
1725979133.836;38;10.00;38091.60
1725979133.887;38;10.00;38091.60
1725979133.937;38;10.00;38091.60
1725979133.987;43;10.00;36975.54
1725979134.036;47;10.00;36161.87
1725979134.086;47;10.00;36161.87
1725979134.137;47;10.00;36161.87
1725979134.187;49;10.00;35594.67
1725979134.237;45;10.00;36544.93
1725979134.287;45;10.00;36544.93
1725979134.336;45;10.00;36544.93
1725979134.386;44;10.00;36680.40
1725979134.438;46;10.00;36424.54
1725979134.488;46;10.00;36424.54
1725979134.538;46;10.00;36424.54
1725979134.638;39;10.00;37868.00
1725979134.688;39;10.00;37868.00
1725979134.738;39;10.00;37868.00
1725979134.787;51;10.00;35110.00
1725979134.837;43;10.00;37042.00
1725979134.887;43;10.00;37042.00
1725979134.938;43;10.00;37042.00
1725979134.988;47;10.00;36203.07
1725979135.037;39;10.00;37841.73
1725979135.087;39;10.00;37841.73
1725979135.138;39;10.00;37841.73
1725979135.189;36;10.00;38697.13
1725979135.440;52;10.00;34934.40
1725979135.490;52;10.00;34934.40
1725979135.540;53;10.00;34821.20
1725979135.591;54;10.00;34514.80
1725979135.640;50;10.00;35383.60
1725979135.690;50;10.00;35383.60
1725979135.790;53;10.00;34644.07
1725979135.841;53;10.00;34644.07
1725979135.891;53;10.00;34644.07
1725979135.941;48;10.00;35849.73
1725979135.991;39;10.00;37873.07
1725979136.041;39;10.00;37873.07
1725979136.090;39;10.00;37873.07
1725979136.141;39;10.00;37869.46
1725979136.191;49;10.00;35698.40
1725979265.609;500;12.72;34424.13
1725979265.809;500;12.74;34470.40
1725979265.859;500;15.52;40097.46
1725979266.009;500;13.09;35181.87
1725979266.060;500;16.15;41363.13
1725979266.260;500;16.20;41457.87
1725979266.309;500;15.76;40566.00
1725979266.359;500;15.76;40566.00
1725979266.410;500;12.92;34838.27
1725979266.510;500;15.52;40084.54
1725979266.560;500;15.52;40084.54
1725979266.611;500;15.51;40071.33
1725979266.661;500;12.67;34322.40
1725979266.711;500;15.72;40489.07
1725979266.760;500;15.72;40489.07
1725979266.811;500;15.30;39652.33
1725979266.861;500;15.69;40440.07
1725979266.910;500;16.57;42216.60
1725979266.961;500;16.57;42216.60
1725979267.011;500;14.87;38774.13
1725979267.061;500;15.53;40116.27
1725979267.111;500;15.36;39768.00
1725979267.162;500;15.36;39768.00
1725979267.211;500;15.36;39768.00
1725979267.261;500;15.43;39901.60
1725979267.311;500;15.71;40475.46
1725979267.361;500;15.71;40475.46
1725979267.412;500;15.71;40475.46
1725979267.461;500;13.45;35901.20
1725979267.511;500;13.73;36474.20
1725979267.561;500;13.73;36474.20
1725979267.611;500;13.73;36474.20
1725979267.661;500;13.14;35284.27
1725979267.712;500;15.50;40052.40
1725979267.761;500;15.50;40052.40
1725979267.811;500;15.82;40699.87
1725979267.861;500;13.14;35273.46
1725979267.911;500;15.60;40252.54
1725979267.962;500;15.60;40252.54
1725979268.012;500;15.60;40252.54
1725979268.061;500;15.80;40655.20
1725979268.111;500;13.02;35037.67
1725979268.162;500;13.02;35037.67
1725979268.211;500;13.02;35037.67
1725979268.261;500;14.16;37337.46
1725979268.312;500;15.58;40205.73
1725979268.362;500;15.58;40205.73
1725979268.412;500;15.58;40205.73
1725979268.462;500;15.72;40491.73
1725979268.662;500;15.70;40445.07
1725979268.712;500;13.31;35627.60
1725979268.763;500;13.31;35627.60
1725979268.812;500;13.31;35627.60
1725979268.863;500;13.00;34992.40
1725979268.912;500;15.71;40466.67
1725979268.963;500;15.71;40466.67
1725979269.012;500;15.71;40466.67
1725979269.063;500;15.68;40411.87
1725979269.112;500;15.87;40798.87
1725979269.163;500;15.87;40798.87
1725979269.213;500;15.87;40798.87
1725979269.263;500;13.84;36699.46
1725979269.313;500;16.27;41605.60
1725979269.363;500;16.27;41605.60
1725979269.413;500;16.27;41605.60
1725979269.464;500;15.70;40453.27
1725979269.514;500;15.77;40590.80
1725979269.564;500;15.77;40590.80
1725979269.613;500;15.77;40590.80
1725979269.663;500;16.08;41212.40
1725979269.713;500;15.72;40488.67
1725979269.764;500;15.72;40488.67
1725979269.813;500;15.72;40488.67
1725979269.864;500;15.72;40488.67
1725979269.914;500;14.25;37511.07
1725979269.965;500;14.25;37511.07
1725979270.014;500;14.25;37511.07
1725979270.065;500;15.87;40802.67
1725979270.115;500;16.26;41584.54
1725979270.165;500;16.26;41584.54
1725979270.214;500;16.26;41584.54
1725979270.264;500;13.36;35717.60
1725979270.314;500;14.28;37574.93
1725979270.365;500;14.28;37574.93
1725979270.414;500;14.28;37574.93
1725979270.465;500;15.74;40540.40
1725979270.514;500;14.08;37181.73
1725979270.564;500;14.08;37181.73
1725979270.615;500;14.08;37181.73
1725979270.665;500;13.27;35530.93
1725979270.715;500;15.83;40710.54
1725979270.765;500;15.83;40710.54
1725979270.815;500;15.83;40710.54
1725979270.865;500;15.75;40544.46
1725979283.657;500;13.89;36800.54
1725979283.707;500;12.88;34754.13
1725979283.757;500;12.88;34754.13
1725979283.808;500;12.88;34754.13
1725979283.859;500;12.86;34699.20
1725979283.909;500;15.50;40042.13
1725979283.959;500;15.50;40042.13
1725979284.009;500;15.50;40042.13
1725979284.059;500;13.13;35256.33
1725979284.259;500;13.51;36024.67
1725979284.460;500;15.39;39818.13
1725979284.661;500;13.20;35394.54
1725979284.861;500;15.63;40311.60
1725979285.111;500;13.01;35018.13
1725979285.160;500;13.01;35018.13
1725979285.211;500;13.01;35018.13
1725979285.311;500;13.12;35226.40
1725979285.361;500;13.12;35226.40
1725979285.411;500;13.12;35226.40
1725979285.460;500;14.37;37764.40
1725979285.511;500;15.46;39972.13
1725979285.560;500;15.46;39969.73
1725979285.612;500;15.46;39969.73
1725979285.662;500;15.46;39969.73
1725979285.712;500;13.00;34987.73
1725979285.761;500;13.00;34987.73
1725979285.811;500;13.00;34987.73
1725979285.862;500;14.06;37141.20
1725979285.913;500;15.77;40599.20
1725979285.964;500;13.96;36938.46
1725979286.013;500;13.96;36938.46
1725979286.063;500;13.96;36938.46
1725979286.113;500;14.50;38024.40
1725979286.164;500;14.50;38024.40
1725979286.214;500;14.50;38024.40
1725979286.263;500;13.76;36536.40
1725979286.314;500;15.81;40682.87
1725979286.365;500;15.81;40682.87
1725979286.565;500;15.38;39811.87
1725979286.765;500;12.80;34589.87
1725979286.966;500;16.39;41852.67
1725979287.117;500;12.98;34956.54
1725979287.167;500;13.59;36180.93
1725979287.217;500;13.59;36180.93
1725979287.267;500;13.59;36180.93
1725979287.318;500;13.13;35253.07
1725979287.368;500;13.13;35253.07
1725979287.418;500;13.13;35253.07
1725979287.468;500;13.13;35253.07
1725979287.517;500;13.54;36086.13
1725979287.567;500;14.93;38889.33
1725979287.617;500;14.93;38889.33
1725979287.668;500;14.93;38889.33
1725979287.717;500;13.36;35715.87
1725979287.767;500;14.14;37300.93
1725979287.817;500;14.14;37300.93
1725979287.868;500;13.04;35068.13
1725979287.917;500;15.65;40354.40
1725979287.968;500;15.65;40354.40
1725979288.018;500;15.65;40354.40
1725979288.068;500;16.05;41152.13
1725979288.117;500;15.63;40306.54
1725979288.168;500;15.63;40306.54
1725979288.218;500;15.63;40306.54
1725979288.268;500;14.64;38300.13
1725979288.317;500;12.90;34782.67
1725979288.367;500;12.90;34782.67
1725979288.417;500;12.90;34782.67
1725979288.467;500;16.33;41732.27
1725979288.517;500;15.52;40093.27
1725979288.568;500;14.56;38154.07
1725979288.618;500;14.56;38154.07
1725979288.668;500;16.27;41609.33
1725979301.327;500;13.56;36121.33
1725979301.377;500;13.56;36121.33
1725979301.426;500;13.56;36121.33
1725979301.476;500;13.31;35619.20
1725979301.527;500;15.71;40472.54
1725979301.577;500;15.71;40472.54
1725979301.627;500;15.71;40472.54
1725979301.677;500;13.95;36907.46
1725979301.726;500;13.01;35007.13
1725979301.776;500;13.01;35007.13
1725979301.827;500;13.01;35007.13
1725979301.877;500;14.17;37353.20
1725979301.927;500;15.73;40508.00
1725979301.977;500;15.73;40508.00
1725979302.027;500;15.73;40508.00
1725979302.077;500;16.17;41407.07
1725979302.127;500;15.21;39451.07
1725979302.177;500;15.86;40784.80
1725979302.226;500;15.86;40784.80
1725979302.276;500;15.81;40666.40
1725979302.327;500;15.46;39966.00
1725979302.377;500;15.46;39966.00
1725979302.427;500;15.46;39966.00
1725979302.527;500;15.57;40193.07
1725979302.577;500;15.57;40193.07
1725979302.627;500;15.57;40193.07
1725979302.677;500;12.75;34493.13
1725979302.727;500;15.52;40087.33
1725979302.776;500;15.52;40087.33
1725979302.827;500;15.52;40087.33
1725979302.877;500;13.66;36326.67
1725979302.926;500;15.50;40053.46
1725979302.977;500;15.50;40053.46
1725979303.027;500;15.50;40053.46
1725979303.127;500;15.46;39957.73
1725979303.177;500;15.46;39957.73
1725979303.227;500;15.46;39957.73
1725979303.277;500;14.46;37950.87
1725979303.328;500;16.21;41481.13
1725979303.378;500;16.21;41481.13
1725979303.427;500;16.21;41481.13
1725979303.478;500;16.21;41481.13
1725979303.527;500;15.84;40730.54
1725979303.578;500;16.20;41468.40
1725979303.627;500;16.20;41468.40
1725979303.678;500;16.20;41468.40
1725979303.727;500;13.14;35278.27
1725979303.778;500;14.68;38398.93
1725979303.827;500;14.68;38398.93
1725979303.878;500;14.68;38398.93
1725979303.928;500;15.75;40553.20
1725979303.977;500;14.33;37681.73
1725979304.028;500;14.33;37681.73
1725979304.078;500;14.33;37681.73
1725979304.128;500;15.74;40529.33
1725979304.178;500;16.24;41539.33
1725979304.228;500;16.24;41539.33
1725979304.278;500;16.24;41539.33
1725979304.328;500;16.28;41630.00
1725979304.379;500;16.28;41630.00
1725979304.428;500;16.28;41630.00
1725979304.478;500;15.71;40470.27
1725979304.528;500;15.53;40098.54
1725979304.579;500;15.53;40098.54
1725979304.629;500;15.58;40217.00
1725979304.679;500;15.55;40156.00
1725979304.728;500;15.55;40156.00
1725979304.779;500;15.55;40156.00
1725979304.829;500;15.55;40156.00
1725979304.878;500;15.35;39744.00
1725979304.930;500;14.93;38902.54
1725979304.980;500;12.85;34682.67
1725979305.030;500;12.85;34682.67
1725979305.080;500;13.27;35547.46
1725979305.130;500;15.93;40910.27
1725979305.180;500;15.14;39319.93
1725979305.230;500;15.14;39319.93
1725979305.280;500;15.46;39959.87
1725979305.331;500;15.88;40822.07
1725979305.381;500;15.88;40822.07
1725979305.431;500;15.88;40822.07
1725979305.482;500;15.17;39389.33
1725979305.532;500;14.94;38913.20
1725979305.582;500;14.94;38913.20
1725979305.633;500;14.94;38913.20
1725979305.682;500;14.67;38363.54
1725979305.732;500;13.32;35641.60
1725979305.782;500;13.32;35641.60
1725979305.832;500;13.32;35641.60
1725979305.883;500;14.20;37412.13
1725979305.933;500;13.81;36638.13
1725979305.983;500;13.81;36638.13
1725979306.032;500;13.81;36638.13
1725979306.083;500;13.81;36638.13
1725979306.133;500;14.61;38252.67
1725979306.183;500;12.89;34774.80
1725979306.232;500;12.89;34774.80
1725979306.282;500;12.89;34774.80
1725979306.333;500;15.70;40449.07
1725979306.383;500;16.19;41440.93
1725979306.433;500;16.19;41440.93
1725979306.483;500;16.10;41258.80
1725979306.533;500;13.47;35949.87
1725979438.319;200;12.87;34733.20
1725979438.369;200;12.87;34733.20
1725979438.421;200;12.87;34733.20
1725979438.471;200;13.61;36224.54
1725979438.521;200;15.43;39898.00
1725979438.570;200;15.43;39898.00
1725979438.620;200;15.43;39898.00
1725979438.671;200;15.93;40921.80
1725979438.720;200;16.36;41785.80
1725979438.770;200;16.36;41785.80
1725979438.821;200;15.65;40354.93
1725979438.871;200;15.51;40066.00
1725979438.921;200;15.51;40066.00
1725979438.971;200;15.51;40066.00
1725979439.022;200;16.21;41492.00
1725979439.071;200;13.97;36950.80
1725979439.123;200;14.22;37467.73
1725979439.172;200;14.22;37467.73
1725979439.223;200;14.22;37467.73
1725979439.273;200;15.33;39700.27
1725979439.323;200;12.99;34974.27
1725979439.372;200;12.99;34974.27
1725979439.423;200;12.99;34974.27
1725979439.473;200;13.68;36367.46
1725979439.524;200;13.82;36656.80
1725979439.574;200;13.82;36656.80
1725979439.623;200;13.82;36656.80
1725979439.673;200;12.94;34869.87
1725979439.723;200;15.20;39434.13
1725979439.774;200;15.20;39434.13
1725979439.823;200;15.20;39434.13
1725979439.874;200;13.27;35537.46
1725979439.924;200;14.28;37579.46
1725979439.973;200;14.28;37579.46
1725979440.025;200;15.95;40950.00
1725979440.075;200;12.73;34453.20
1725979440.125;200;12.73;34453.20
1725979440.175;200;12.73;34453.20
1725979440.226;200;15.04;39112.00
1725979440.276;200;14.31;37642.00
1725979440.326;200;15.60;40255.73
1725979440.377;200;15.60;40255.73
1725979440.426;200;15.60;40255.73
1725979440.476;200;12.92;34824.13
1725979440.526;200;13.28;35551.33
1725979440.576;200;13.28;35551.33
1725979440.626;200;14.40;37814.54
1725979440.726;200;13.08;35149.87
1725979440.776;200;13.08;35149.87
1725979440.826;200;13.16;35306.13
1725979440.926;200;12.70;34375.73
1725979440.977;200;12.70;34375.73
1725979441.028;200;12.70;34375.73
1725979441.127;200;13.27;35540.80
1725979441.178;200;13.27;35540.80
1725979441.228;200;13.27;35540.80
1725979441.277;200;15.74;40533.13
1725979441.327;200;16.30;41669.07
1725979441.378;200;16.30;41669.07
1725979441.428;200;16.30;41669.07
1725979441.480;200;15.04;39112.80
1725979441.528;200;12.80;34594.54
1725979441.578;200;12.80;34594.54
1725979441.629;200;12.80;34594.54
1725979441.679;200;15.32;39690.20
1725979441.729;200;16.08;41211.13
1725979441.778;200;16.08;41211.13
1725979441.829;200;15.52;40095.27
1725979441.878;200;14.95;38939.33
1725979441.928;200;14.95;38939.33
1725979441.978;200;14.95;38939.33
1725979442.029;200;13.03;35047.80
1725979442.078;200;15.73;40517.33
1725979442.129;200;15.73;40517.33
1725979442.178;200;15.73;40517.33
1725979442.229;200;15.73;40513.87
1725979442.279;200;14.55;38127.60
1725979442.329;200;14.55;38127.60
1725979442.380;200;13.41;35829.46
1725979442.430;200;13.18;35361.00
1725979442.479;200;13.12;35229.60
1725979442.530;200;13.12;35229.60
1725979442.580;200;13.12;35229.60
1725979442.629;200;15.87;40792.00
1725979442.680;200;15.20;39450.80
1725979442.730;200;15.20;39450.80
1725979442.780;200;15.20;39450.80
1725979442.829;200;14.95;38927.54
1725979442.879;200;12.81;34604.00
1725979442.929;200;15.43;39896.93
1725979442.979;200;15.43;39896.93
1725979443.029;200;15.43;39896.93
1725979443.079;200;13.41;35815.46
1725979443.130;200;16.22;41503.87
1725979443.179;200;16.22;41503.87
1725979443.229;200;16.22;41503.87
1725979443.280;200;13.11;35221.87
1725979443.330;200;13.11;35221.87
1725979443.380;200;13.11;35221.87
1725979443.430;200;16.37;41814.13
1725979443.480;200;15.23;39505.67
1725979455.610;200;13.30;35589.40
1725979455.661;200;13.30;35589.40
1725979455.711;200;13.30;35589.40
1725979455.761;200;13.07;35143.46
1725979455.810;200;15.41;39856.40
1725979455.861;200;15.41;39856.40
1725979455.911;200;15.41;39856.40
1725979455.961;200;15.39;39827.60
1725979456.011;200;15.09;39221.73
1725979456.061;200;15.09;39221.73
1725979456.111;200;15.09;39221.73
1725979456.162;200;15.09;39221.73
1725979456.211;200;15.35;39752.13
1725979456.262;200;15.35;39752.13
1725979456.312;200;15.35;39752.13
1725979456.361;200;15.35;39752.13
1725979456.412;200;15.64;40332.93
1725979456.462;200;15.64;40332.93
1725979456.511;200;15.64;40332.93
1725979456.562;200;15.64;40332.93
1725979456.612;200;12.78;34555.46
1725979456.762;200;13.93;36880.13
1725979456.812;200;13.44;35888.46
1725979456.862;200;12.83;34658.13
1725979456.912;200;12.83;34658.13
1725979456.962;200;12.83;34658.13
1725979457.012;200;13.90;36803.20
1725979457.062;200;13.90;36803.20
1725979457.112;200;13.90;36803.20
1725979457.162;200;13.90;36803.20
1725979457.212;200;15.19;39418.60
1725979457.262;200;14.09;37192.20
1725979457.312;200;14.09;37192.20
1725979457.361;200;13.89;36782.07
1725979457.413;200;13.19;35366.46
1725979457.463;200;13.24;35472.27
1725979457.512;200;13.24;35472.27
1725979457.563;200;13.63;36265.67
1725979457.613;200;13.52;36052.54
1725979457.663;200;13.15;35298.80
1725979457.714;200;13.15;35298.80
1725979457.764;200;13.15;35298.80
1725979457.814;200;15.35;39734.27
1725979457.864;200;15.35;39734.27
1725979457.915;200;15.35;39734.27
1725979457.965;200;15.85;40754.93
1725979458.015;200;15.81;40681.07
1725979458.065;200;15.81;40681.07
1725979458.116;200;15.81;40681.07
1725979458.166;200;16.04;41138.40
1725979458.217;200;15.71;40481.73
1725979458.266;200;15.71;40481.73
1725979458.316;200;15.71;40481.73
1725979458.367;200;15.76;40578.93
1725979458.417;200;12.70;34387.73
1725979458.468;200;12.70;34387.73
1725979458.518;200;12.70;34387.73
1725979458.568;200;12.77;34535.54
1725979458.618;200;13.67;36356.27
1725979458.668;200;13.67;36356.27
1725979458.717;200;13.67;36356.27
1725979458.768;200;13.67;36356.27
1725979458.817;200;15.69;40435.20
1725979458.867;200;13.21;35423.33
1725979458.917;200;13.21;35423.33
1725979458.968;200;13.21;35423.33
1725979459.018;200;15.31;39662.67
1725979459.069;200;16.00;41063.27
1725979459.119;200;15.51;40062.54
1725979459.169;200;15.51;40062.54
1725979459.218;200;16.29;41638.00
1725979459.269;200;13.31;35619.07
1725979459.319;200;12.71;34400.07
1725979459.369;200;12.71;34400.07
1725979459.420;200;12.71;34400.07
1725979459.469;200;15.45;39948.00
1725979459.521;200;16.15;41366.80
1725979459.570;200;16.15;41366.80
1725979459.622;200;16.15;41366.80
1725979459.672;200;15.69;40423.07
1725979459.722;200;14.28;37588.40
1725979459.772;200;14.28;37588.40
1725979459.821;200;14.28;37588.40
1725979459.872;200;14.28;37588.40
1725979459.972;200;13.23;35458.87
1725979460.022;200;13.23;35458.87
1725979460.072;200;12.91;34805.46
1725979460.122;200;16.16;41376.93
1725979460.172;200;16.16;41376.93
1725979460.222;200;16.16;41376.93
1725979460.272;200;16.16;41376.93
1725979460.322;200;16.24;41545.07
1725979460.372;200;16.24;41545.07
1725979460.422;200;16.24;41545.07
1725979460.472;200;16.16;41383.67
1725979460.522;200;15.98;41011.93
1725979460.573;200;15.98;41011.93
1725979460.623;200;15.98;41011.93
1725979460.673;200;15.51;40071.93
1725979460.723;200;16.05;41166.93
1725979460.773;200;16.05;41166.93
1725979460.822;200;16.05;41166.93
1725979460.873;200;16.07;41203.73
1725979460.923;200;15.77;40584.00
1725979460.973;200;15.84;40741.13
1725979461.023;200;15.84;40741.13
1725979461.073;200;14.41;37835.46
1725979473.213;200;13.25;35500.40
1725979473.263;200;13.84;36696.00
1725979473.313;200;13.84;36696.00
1725979473.364;200;13.84;36696.00
1725979473.414;200;12.87;34720.80
1725979473.463;200;16.37;41809.07
1725979473.513;200;16.37;41809.07
1725979473.563;200;16.37;41809.07
1725979473.613;200;15.09;39223.87
1725979473.663;200;15.84;40728.93
1725979473.713;200;15.84;40728.93
1725979473.764;200;15.61;40266.13
1725979473.813;200;14.96;38951.87
1725979473.863;200;14.96;38951.87
1725979473.913;200;14.96;38951.87
1725979473.963;200;15.82;40689.07
1725979474.013;200;15.40;39845.87
1725979474.063;200;15.40;39845.87
1725979474.114;200;15.40;39845.87
1725979474.163;200;13.41;35826.46
1725979474.213;200;15.50;40040.40
1725979474.263;200;15.50;40040.40
1725979474.314;200;15.50;40040.40
1725979474.364;200;15.43;39897.40
1725979474.564;200;12.88;34746.00
1725979474.615;200;13.59;36192.27
1725979474.664;200;12.83;34639.20
1725979474.714;200;12.83;34639.20
1725979474.765;200;12.83;34639.20
1725979474.815;200;13.12;35236.27
1725979474.865;200;15.58;40211.07
1725979474.915;200;15.58;40211.07
1725979474.965;200;15.58;40211.07
1725979475.015;200;15.83;40712.27
1725979475.065;200;15.25;39548.00
1725979475.115;200;15.25;39548.00
1725979475.166;200;15.25;39548.00
1725979475.216;200;15.82;40703.54
1725979475.267;200;16.04;41139.46
1725979475.316;200;16.04;41139.46
1725979475.367;200;16.04;41139.46
1725979475.416;200;14.65;38333.07
1725979475.467;200;15.52;40089.60
1725979475.516;200;15.52;40089.60
1725979475.566;200;15.52;40089.60
1725979475.616;200;15.63;40313.20
1725979475.666;200;15.98;41026.67
1725979475.717;200;15.98;41026.67
1725979475.766;200;15.50;40042.80
1725979475.816;200;16.12;41298.00
1725979475.866;200;16.12;41296.27
1725979475.916;200;16.12;41296.27
1725979475.967;200;15.63;40318.40
1725979476.017;200;15.45;39943.33
1725979476.067;200;15.71;40476.80
1725979476.116;200;15.71;40476.80
1725979476.166;200;14.88;38785.60
1725979476.216;200;15.82;40697.40
1725979476.267;200;14.80;38635.07
1725979476.316;200;14.80;38635.07
1725979476.366;200;15.14;39324.27
1725979476.416;200;15.68;40417.87
1725979476.467;200;14.83;38686.33
1725979476.517;200;14.83;38686.33
1725979476.566;200;14.94;38914.20
1725979476.616;200;16.09;41231.73
1725979476.767;200;13.08;35150.00
1725979476.816;200;15.27;39583.20
1725979476.867;200;14.71;38441.73
1725979476.917;200;14.71;38441.73
1725979477.017;200;15.44;39921.33
1725979477.066;200;15.28;39608.46
1725979477.117;200;15.28;39608.46
1725979477.217;200;12.81;34603.20
1725979477.267;200;12.98;34947.33
1725979477.317;200;12.98;34947.33
1725979477.416;200;15.29;39613.20
1725979477.467;200;13.87;36743.73
1725979477.517;200;13.87;36743.73
1725979477.566;200;13.87;36743.73
1725979477.616;200;14.93;38904.93
1725979477.667;200;12.89;34767.73
1725979477.717;200;16.05;41153.60
1725979477.766;200;16.05;41153.60
1725979477.817;200;16.05;41153.60
1725979477.867;200;15.00;39037.60
1725979477.917;200;15.95;40958.54
1725979477.966;200;15.77;40593.33
1725979478.016;200;15.77;40593.33
1725979478.067;200;14.71;38444.00
1725979478.116;200;13.93;36876.00
1725979478.167;200;15.37;39792.27
1725979478.217;200;15.37;39792.27
1725979478.267;200;15.37;39792.27
1725979478.317;200;15.71;40466.87
1725979478.367;200;14.98;38992.27
1725979478.417;200;14.98;38992.27
1725979478.468;200;14.98;38992.27
1725979478.518;200;16.17;41398.80
1725979478.567;200;15.27;39574.80
1725979478.618;200;15.27;39574.80
1725979478.667;200;15.27;39574.80
1725979478.717;200;13.55;36108.13
1725979594.693;50;13.34;35672.80
1725979594.743;50;12.85;34691.60
1725979594.792;50;12.85;34691.60
1725979594.843;50;15.43;39909.87
1725979594.893;50;13.73;36474.67
1725979594.944;50;13.73;36474.67
1725979594.994;50;13.83;36668.00
1725979595.043;50;13.03;35055.20
1725979595.094;50;13.03;35055.20
1725979595.144;50;13.03;35055.20
1725979595.194;50;13.27;35543.20
1725979595.244;50;12.85;34697.20
1725979595.294;50;12.85;34697.20
1725979595.344;50;12.85;34697.20
1725979595.394;50;16.02;41092.27
1725979595.444;50;14.31;37632.00
1725979595.494;50;13.76;36531.20
1725979595.544;50;13.76;36531.20
1725979595.594;50;15.11;39258.87
1725979595.694;50;14.21;37446.93
1725979595.744;50;14.21;37446.93
1725979595.794;50;14.21;37446.93
1725979595.844;50;13.54;36089.80
1725979595.894;50;13.07;35139.54
1725979595.944;50;13.07;35139.54
1725979595.994;50;13.07;35139.54
1725979596.044;50;13.08;35158.73
1725979596.095;50;13.13;35262.27
1725979596.145;50;13.13;35262.27
1725979596.195;50;13.13;35262.27
1725979596.244;50;13.05;35098.80
1725979596.294;50;16.16;41376.00
1725979596.345;50;16.16;41376.00
1725979596.394;50;16.16;41376.00
1725979596.445;50;12.94;34875.93
1725979596.495;50;13.56;36121.40
1725979596.545;50;13.56;36121.40
1725979596.595;50;13.56;36121.40
1725979596.644;50;13.50;36006.13
1725979596.695;50;16.19;41440.13
1725979596.745;50;16.19;41440.13
1725979596.794;50;16.19;41440.13
1725979596.844;50;15.64;40324.54
1725979596.895;50;15.46;39971.60
1725979596.945;50;15.46;39971.60
1725979596.994;50;15.46;39971.60
1725979597.044;50;15.77;40585.20
1725979597.094;50;15.04;39119.33
1725979597.145;50;15.04;39119.33
1725979597.194;50;15.04;39119.33
1725979597.245;50;14.99;39007.46
1725979597.295;50;13.26;35518.54
1725979597.345;50;13.26;35518.54
1725979597.394;50;13.26;35518.54
1725979597.445;50;13.70;36407.87
1725979597.495;50;14.80;38622.27
1725979597.544;50;14.80;38622.27
1725979597.595;50;14.80;38622.27
1725979597.644;50;14.91;38845.60
1725979597.695;50;14.91;38845.60
1725979597.745;50;14.71;38450.00
1725979597.795;50;15.15;39333.07
1725979597.846;50;15.15;39333.07
1725979597.896;50;15.15;39333.07
1725979597.946;50;13.76;36535.80
1725979597.996;50;14.52;38058.93
1725979598.045;50;14.52;38058.93
1725979598.096;50;14.52;38058.93
1725979598.146;50;14.87;38769.33
1725979598.196;50;14.00;37017.33
1725979598.246;50;14.72;38472.67
1725979598.296;50;14.72;38472.67
1725979598.347;50;14.72;38472.67
1725979598.397;50;14.78;38601.40
1725979598.447;50;14.86;38743.60
1725979598.497;50;16.56;42184.27
1725979598.548;50;16.56;42184.27
1725979598.597;50;16.56;42184.27
1725979598.647;50;15.36;39758.13
1725979598.697;50;15.59;40223.46
1725979598.747;50;15.59;40223.46
1725979598.798;50;15.59;40223.46
1725979598.848;50;14.11;37236.27
1725979598.898;50;15.56;40172.80
1725979598.948;50;15.56;40172.80
1725979598.999;50;15.56;40172.80
1725979599.048;50;13.68;36365.46
1725979599.098;50;13.80;36606.60
1725979599.148;50;13.80;36606.60
1725979599.197;50;13.80;36606.60
1725979599.248;50;13.80;36606.60
1725979599.298;50;13.28;35567.46
1725979599.348;50;13.28;35567.46
1725979599.398;50;13.28;35567.46
1725979599.448;50;14.58;38183.60
1725979599.498;50;13.80;36614.93
1725979599.549;50;13.80;36614.93
1725979599.598;50;13.80;36614.93
1725979599.648;50;13.80;36614.93
1725979599.698;50;15.74;40525.73
1725979599.748;50;15.74;40525.73
1725979599.798;50;15.74;40525.73
1725979599.849;50;15.21;39453.87
1725979612.074;50;13.12;35237.73
1725979612.124;50;13.12;35237.73
1725979612.174;50;13.12;35237.73
1725979612.224;50;14.09;37196.80
1725979612.275;50;14.79;38620.93
1725979612.324;50;14.28;37581.20
1725979612.374;50;14.28;37581.20
1725979612.426;50;14.13;37273.33
1725979612.476;50;14.18;37386.93
1725979612.526;50;14.70;38436.46
1725979612.576;50;14.70;38436.46
1725979612.627;50;15.37;39786.67
1725979612.677;50;15.37;39786.67
1725979612.727;50;13.93;36877.07
1725979612.777;50;13.93;36877.07
1725979612.832;50;13.93;36877.07
1725979612.879;50;16.49;42050.13
1725979612.930;50;14.83;38695.20
1725979612.980;50;14.83;38695.20
1725979613.030;50;14.83;38695.20
1725979613.081;50;16.29;41641.60
1725979613.280;50;15.27;39588.67
1725979613.330;50;12.67;34325.07
1725979613.380;50;12.67;34325.07
1725979613.430;50;12.67;34325.07
1725979613.481;50;13.99;36999.87
1725979613.530;50;14.39;37802.80
1725979613.580;50;14.39;37802.80
1725979613.631;50;14.39;37802.80
1725979613.682;50;14.33;37672.00
1725979613.732;50;13.90;36802.60
1725979613.782;50;13.90;36802.60
1725979613.832;50;13.90;36802.60
1725979613.882;50;14.29;37602.27
1725979613.932;50;14.09;37196.93
1725979613.982;50;14.09;37196.93
1725979614.032;50;13.97;36944.93
1725979614.082;50;13.26;35510.40
1725979614.132;50;14.44;37901.13
1725979614.182;50;14.44;37901.13
1725979614.233;50;14.44;37901.13
1725979614.283;50;13.56;36133.13
1725979614.333;50;14.26;37541.33
1725979614.383;50;14.26;37541.33
1725979614.433;50;15.59;40228.67
1725979614.483;50;13.12;35231.33
1725979614.533;50;13.51;36032.27
1725979614.583;50;13.51;36032.27
1725979614.634;50;13.51;36032.27
1725979614.684;50;13.93;36868.80
1725979614.734;50;15.49;40021.60
1725979614.784;50;15.49;40021.60
1725979614.835;50;15.49;40021.60
1725979614.885;50;15.48;39998.27
1725979614.935;50;14.79;38621.07
1725979614.985;50;14.79;38621.07
1725979615.035;50;14.79;38621.07
1725979615.086;50;13.23;35453.33
1725979615.136;50;15.65;40352.67
1725979615.186;50;15.65;40352.67
1725979615.236;50;15.65;40352.67
1725979615.286;50;15.60;40243.33
1725979615.336;50;13.95;36914.67
1725979615.386;50;13.95;36914.67
1725979615.436;50;13.95;36914.67
1725979615.486;50;13.95;36914.67
1725979615.536;50;15.31;39668.93
1725979615.586;50;14.87;38765.07
1725979615.636;50;14.87;38765.07
1725979615.686;50;14.87;38765.07
1725979615.736;50;14.00;37021.60
1725979615.786;50;15.35;39736.27
1725979615.836;50;15.35;39736.27
1725979615.886;50;15.35;39736.27
1725979615.937;50;14.36;37746.27
1725979615.987;50;15.81;40680.40
1725979616.037;50;15.81;40680.40
1725979616.086;50;15.81;40680.40
1725979616.137;50;15.49;40026.54
1725979616.187;50;15.15;39348.93
1725979616.236;50;15.15;39348.93
1725979616.287;50;15.15;39348.93
1725979616.337;50;13.90;36808.80
1725979616.387;50;14.64;38311.13
1725979616.437;50;14.64;38311.13
1725979616.488;50;14.64;38311.13
1725979616.538;50;15.82;40695.80
1725979616.588;50;13.85;36715.33
1725979616.638;50;14.56;38152.60
1725979616.688;50;14.56;38152.60
1725979616.738;50;14.56;38152.60
1725979616.788;50;15.84;40726.27
1725979616.838;50;13.39;35772.80
1725979616.888;50;13.39;35772.80
1725979616.938;50;13.39;35772.80
1725979616.989;50;14.85;38729.33
1725979617.190;50;14.63;38284.00
1725979617.240;50;13.01;35006.13
1725979617.290;50;13.01;35006.13
1725979617.340;50;13.01;35006.13
1725979617.390;50;14.05;37109.60
1725979630.122;50;13.23;35453.60
1725979630.173;50;13.23;35453.60
1725979630.222;50;13.23;35453.60
1725979630.273;50;13.23;35453.60
1725979630.323;50;14.81;38660.00
1725979630.373;50;13.39;35778.27
1725979630.423;50;13.39;35778.27
1725979630.473;50;13.39;35778.27
1725979630.522;50;15.99;41035.73
1725979630.573;50;15.99;41035.73
1725979630.624;50;15.99;41035.73
1725979630.674;50;13.47;35941.67
1725979630.723;50;14.69;38406.60
1725979630.774;50;14.69;38406.60
1725979630.824;50;14.69;38406.60
1725979630.874;50;14.69;38406.60
1725979630.923;50;14.60;38225.60
1725979630.974;50;14.46;37943.87
1725979631.024;50;14.46;37943.87
1725979631.075;50;14.46;37943.87
1725979631.125;50;14.94;38922.73
1725979631.176;50;13.11;35219.87
1725979631.226;50;13.11;35219.87
1725979631.276;50;12.70;34382.54
1725979631.326;50;15.58;40202.27
1725979631.376;50;15.58;40202.27
1725979631.426;50;15.58;40202.27
1725979631.476;50;13.95;36908.93
1725979631.526;50;14.94;38923.73
1725979631.576;50;14.94;38923.73
1725979631.626;50;14.94;38923.73
1725979631.676;50;15.19;39428.46
1725979631.726;50;15.22;39486.40
1725979631.776;50;15.22;39486.40
1725979631.826;50;15.22;39486.40
1725979631.876;50;13.64;36282.46
1725979631.926;50;12.97;34936.67
1725979631.976;50;12.97;34936.67
1725979632.026;50;12.97;34936.67
1725979632.076;50;13.98;36968.00
1725979632.276;50;14.84;38719.73
1725979632.526;50;12.80;34593.87
1725979632.576;50;12.95;34883.07
1725979632.627;50;12.95;34883.07
1725979632.677;50;12.95;34883.07
1725979632.727;50;14.43;37879.87
1725979632.777;50;14.43;37879.87
1725979632.827;50;14.43;37879.87
1725979632.877;50;15.36;39761.20
1725979632.927;50;14.73;38486.13
1725979632.977;50;14.73;38486.13
1725979633.028;50;16.22;41493.27
1725979633.077;50;14.03;37084.80
1725979633.128;50;14.03;37084.80
1725979633.178;50;14.03;37084.80
1725979633.227;50;13.77;36550.07
1725979633.277;50;13.77;36550.07
1725979633.327;50;13.77;36550.07
1725979633.377;50;14.75;38528.00
1725979633.427;50;13.05;35087.20
1725979633.478;50;13.05;35087.20
1725979633.528;50;13.05;35087.20
1725979633.578;50;15.48;40002.87
1725979633.628;50;15.13;39304.40
1725979633.679;50;15.13;39304.40
1725979633.728;50;15.13;39304.40
1725979633.828;50;15.36;39755.54
1725979633.878;50;15.36;39755.54
1725979633.928;50;15.36;39755.54
1725979633.978;50;15.10;39240.60
1725979634.029;50;15.41;39860.13
1725979634.229;50;13.68;36370.73
1725979634.279;50;13.68;36364.54
1725979634.329;50;13.68;36364.54
1725979634.379;50;13.68;36364.54
1725979634.429;50;14.95;38937.20
1725979634.481;50;13.17;35332.73
1725979634.530;50;13.17;35332.73
1725979634.630;50;12.85;34683.33
1725979634.681;50;12.85;34683.33
1725979634.731;50;12.85;34683.33
1725979634.781;50;13.02;35027.60
1725979634.831;50;13.56;36120.54
1725979634.882;50;13.56;36120.54
1725979634.931;50;13.56;36120.54
1725979634.981;50;14.10;37212.73
1725979635.031;50;15.15;39336.00
1725979635.082;50;15.15;39336.00
1725979635.131;50;15.15;39336.00
1725979635.182;50;13.42;35844.00
1725979728.339;46;40.00;36325.60
1725979728.389;46;40.00;36325.60
1725979728.440;46;40.00;36325.60
1725979728.490;45;40.00;36568.80
1725979728.540;35;40.00;38755.60
1725979728.590;35;40.00;38755.60
1725979728.644;35;40.00;38755.60
1725979728.691;33;40.00;39349.73
1725979728.742;50;40.00;35440.27
1725979728.792;48;40.00;35766.00
1725979728.843;48;40.00;35766.00
1725979728.893;48;40.00;35766.00
1725979728.944;43;40.00;37019.87
1725979728.994;43;40.00;37019.87
1725979729.044;43;40.00;37019.87
1725979729.093;21;40.00;42020.13
1725979729.144;25;40.00;41145.60
1725979729.194;25;40.00;41145.60
1725979729.244;25;40.00;41145.60
1725979729.294;40;40.00;37765.46
1725979729.345;54;40.00;34509.46
1725979729.395;54;40.00;34509.46
1725979729.445;54;40.00;34509.46
1725979729.495;33;40.00;39359.07
1725979729.545;48;40.00;35898.80
1725979729.595;48;40.00;35898.80
1725979729.645;48;40.00;35898.80
1725979729.695;48;40.00;35898.80
1725979729.745;34;40.00;39057.87
1725979729.795;30;40.00;40016.40
1725979729.844;30;40.00;40016.40
1725979729.895;30;40.00;40016.40
1725979729.946;50;40.00;35466.54
1725979729.996;48;40.00;35976.20
1725979730.046;48;40.00;35976.20
1725979730.096;48;40.00;35976.20
1725979730.146;25;40.00;41122.13
1725979730.196;29;40.00;40177.33
1725979730.246;29;40.00;40177.33
1725979730.297;29;40.00;40177.33
1725979730.347;27;40.00;40576.60
1725979730.397;34;40.00;38960.46
1725979730.446;34;40.00;38960.46
1725979730.496;54;40.00;34406.00
1725979730.546;42;40.00;37162.40
1725979730.596;42;40.00;37162.40
1725979730.646;42;40.00;37162.40
1725979730.696;28;40.00;40439.87
1725979730.746;32;40.00;39539.27
1725979730.796;32;40.00;39539.27
1725979730.846;32;40.00;39539.27
1725979730.896;53;40.00;34691.07
1725979730.946;54;40.00;34592.54
1725979730.996;54;40.00;34592.54
1725979731.046;54;40.00;34592.54
1725979731.146;49;40.00;35738.67
1725979731.196;49;40.00;35738.67
1725979731.246;49;40.00;35738.67
1725979731.296;49;40.00;35738.67
1725979731.346;54;40.00;34473.46
1725979731.396;25;40.00;41235.60
1725979731.446;25;40.00;41235.60
1725979731.496;25;40.00;41235.60
1725979731.547;32;40.00;39622.27
1725979731.597;32;40.00;39622.27
1725979731.647;32;40.00;39622.27
1725979731.697;44;40.00;36831.87
1725979731.747;47;40.00;36061.46
1725979731.797;47;40.00;36061.46
1725979731.847;47;40.00;36061.46
1725979731.898;48;40.00;35822.13
1725979731.948;26;40.00;40881.07
1725979731.999;26;40.00;40881.07
1725979732.048;26;40.00;40881.07
1725979732.148;38;40.00;38248.00
1725979732.198;38;40.00;38248.00
1725979732.248;38;40.00;38248.00
1725979732.299;53;40.00;34630.67
1725979732.349;48;40.00;35831.07
1725979732.399;48;40.00;35831.07
1725979732.449;48;40.00;35831.07
1725979732.499;27;40.00;40754.00
1725979732.550;41;40.00;37417.13
1725979732.600;41;40.00;37417.13
1725979732.650;41;40.00;37417.13
1725979732.700;48;40.00;35854.27
1725979732.750;29;40.00;40214.27
1725979732.800;29;40.00;40214.27
1725979732.850;29;40.00;40214.27
1725979732.950;33;40.00;39371.87
1725979733.000;33;40.00;39371.87
1725979733.050;33;40.00;39371.87
1725979733.100;51;40.00;35074.27
1725979733.151;38;40.00;38217.73
1725979733.200;38;40.00;38217.73
1725979733.251;38;40.00;38217.73
1725979733.301;33;40.00;39255.20
1725979733.350;51;40.00;35262.00
1725979733.400;51;40.00;35262.00
1725979733.456;51;40.00;35262.00
1725979733.502;32;40.00;39429.07
1725979746.046;52;40.00;35050.13
1725979746.096;50;40.00;35328.27
1725979746.146;50;40.00;35328.27
1725979746.196;51;40.00;35137.20
1725979746.246;33;40.00;39306.20
1725979746.296;42;40.00;37167.20
1725979746.346;42;40.00;37167.20
1725979746.396;44;40.00;36785.60
1725979746.446;43;40.00;36916.73
1725979746.497;41;40.00;37384.13
1725979746.547;41;40.00;37384.13
1725979746.597;45;40.00;36643.87
1725979746.647;44;40.00;36684.40
1725979746.697;44;40.00;36684.40
1725979746.747;44;40.00;36684.40
1725979746.797;54;40.00;34452.27
1725979746.847;30;40.00;39899.20
1725979746.897;30;40.00;39899.20
1725979746.947;30;40.00;39899.20
1725979746.998;25;40.00;41185.46
1725979747.047;35;40.00;38733.46
1725979747.098;40;40.00;37803.20
1725979747.147;40;40.00;37803.20
1725979747.198;40;40.00;37803.20
1725979747.247;29;40.00;40218.27
1725979747.749;54;40.00;34514.33
1725979747.799;53;40.00;34779.07
1725979747.849;53;40.00;34779.07
1725979747.900;48;40.00;35768.27
1725979747.949;21;40.00;42084.13
1725979747.999;21;40.00;42084.13
1725979748.049;21;40.00;42084.13
1725979748.100;48;40.00;35853.60
1725979748.150;54;40.00;34522.54
1725979748.200;47;40.00;36125.93
1725979748.250;47;40.00;36125.93
1725979748.301;47;40.00;36125.93
1725979748.350;54;40.00;34550.80
1725979748.401;39;40.00;37999.46
1725979748.451;39;40.00;37999.46
1725979748.501;50;40.00;35478.13
1725979748.551;51;40.00;35189.33
1725979748.601;54;40.00;34481.46
1725979748.652;54;40.00;34481.46
1725979748.701;22;40.00;41793.46
1725979748.752;26;40.00;40932.80
1725979748.802;26;40.00;40932.80
1725979748.852;26;40.00;40932.80
1725979748.902;34;40.00;39158.00
1725979748.951;49;40.00;35689.60
1725979749.001;50;40.00;35462.67
1725979749.053;50;40.00;35462.67
1725979749.104;50;40.00;35462.67
1725979749.153;27;40.00;40662.54
1725979749.205;31;40.00;39751.67
1725979749.255;31;40.00;39751.67
1725979749.304;31;40.00;39751.67
1725979749.354;49;40.00;35626.87
1725979749.404;29;40.00;40166.13
1725979749.455;29;40.00;40166.13
1725979749.504;29;40.00;40166.13
1725979749.555;29;40.00;40166.13
1725979749.604;54;40.00;34448.80
1725979749.655;46;40.00;36326.00
1725979749.705;46;40.00;36326.00
1725979749.754;46;40.00;36326.00
1725979749.805;42;40.00;37168.54
1725979749.855;24;40.00;41251.46
1725979749.904;24;40.00;41251.46
1725979749.954;24;40.00;41251.46
1725979750.004;38;40.00;38180.13
1725979750.054;42;40.00;37293.20
1725979750.105;42;40.00;37293.20
1725979750.155;42;40.00;37293.20
1725979750.205;46;40.00;36333.07
1725979750.255;31;40.00;39850.54
1725979750.305;31;40.00;39850.54
1725979750.356;31;40.00;39850.54
1725979750.406;44;40.00;36697.33
1725979750.455;33;40.00;39276.46
1725979750.656;33;40.00;39224.40
1725979750.706;49;40.00;35555.46
1725979750.756;49;40.00;35555.46
1725979750.806;49;40.00;35555.46
1725979750.856;46;40.00;36425.07
1725979750.906;40;40.00;37783.20
1725979750.956;40;40.00;37783.20
1725979751.006;40;40.00;37783.20
1725979751.057;42;40.00;37192.67
1725979751.107;31;40.00;39834.87
1725979751.157;31;40.00;39834.87
1725979751.207;31;40.00;39834.87
1725979751.407;41;40.00;37479.40
1725979751.457;50;40.00;35337.33
1725979764.076;47;40.00;36074.40
1725979764.126;47;40.00;36017.73
1725979764.176;47;40.00;36017.73
1725979764.227;47;40.00;36017.73
1725979764.276;25;40.00;41064.93
1725979764.326;36;40.00;38611.46
1725979764.377;36;40.00;38611.46
1725979764.427;36;40.00;38611.46
1725979764.476;31;40.00;39680.00
1725979764.526;42;40.00;37166.13
1725979764.577;42;40.00;37166.13
1725979764.628;27;40.00;40747.33
1725979764.677;46;40.00;36354.00
1725979764.729;46;40.00;36354.00
1725979764.778;46;40.00;36354.00
1725979764.829;50;40.00;35469.20
1725979764.878;26;40.00;40991.60
1725979764.929;26;40.00;40991.60
1725979764.978;26;40.00;40991.60
1725979765.029;36;40.00;38697.33
1725979765.079;26;40.00;40819.80
1725979765.129;26;40.00;40819.80
1725979765.179;26;40.00;40819.80
1725979765.229;35;40.00;38752.67
1725979765.279;41;40.00;37555.33
1725979765.329;41;40.00;37555.33
1725979765.379;41;40.00;37555.33
1725979765.429;32;40.00;39578.40
1725979765.479;31;40.00;39692.27
1725979765.530;27;40.00;40774.13
1725979765.579;27;40.00;40774.13
1725979765.629;27;40.00;40774.13
1725979765.679;39;40.00;37883.60
1725979765.880;49;40.00;35649.20
1725979765.929;48;40.00;35850.80
1725979765.979;48;40.00;35850.80
1725979766.030;45;40.00;36560.20
1725979766.080;32;40.00;39557.07
1725979766.130;32;40.00;39599.87
1725979766.179;32;40.00;39599.87
1725979766.229;51;40.00;35179.80
1725979766.280;36;40.00;38665.13
1725979766.330;36;40.00;38665.13
1725979766.380;36;40.00;38665.13
1725979766.430;50;40.00;35351.33
1725979766.480;51;40.00;35156.00
1725979766.530;47;40.00;36042.13
1725979766.580;47;40.00;36042.13
1725979766.630;48;40.00;35827.46
1725979766.680;38;40.00;38205.73
1725979766.731;54;40.00;34541.33
1725979766.781;54;40.00;34541.33
1725979766.830;54;40.00;34541.33
1725979766.881;44;40.00;36852.54
1725979766.932;34;40.00;39056.93
1725979766.982;34;40.00;39056.93
1725979767.032;34;40.00;39056.93
1725979767.081;26;40.00;41010.93
1725979767.132;37;40.00;38293.87
1725979767.181;35;40.00;38739.87
1725979767.231;35;40.00;38739.87
1725979767.282;35;40.00;38739.87
1725979767.331;35;40.00;38879.93
1725979767.382;31;40.00;39767.46
1725979767.432;31;40.00;39767.46
1725979767.482;31;40.00;39767.46
1725979767.533;39;40.00;37879.33
1725979767.582;53;40.00;34725.13
1725979767.633;54;40.00;34503.40
1725979767.683;54;40.00;34503.40
1725979767.733;54;40.00;34503.40
1725979767.783;22;40.00;41850.27
1725979767.835;24;40.00;41471.33
1725979767.883;24;40.00;41471.33
1725979767.934;24;40.00;41471.33
1725979767.984;45;40.00;36583.20
1725979768.034;38;40.00;38153.60
1725979768.084;38;40.00;38153.60
1725979768.134;38;40.00;38153.60
1725979768.184;48;40.00;35942.54
1725979768.235;48;40.00;35942.54
1725979768.284;48;40.00;35942.54
1725979768.335;24;40.00;41294.40
1725979768.385;24;40.00;41405.46
1725979768.435;24;40.00;41405.46
1725979768.484;24;40.00;41405.46
1725979768.535;30;40.00;39958.93
1725979768.585;54;40.00;34581.80
1725979768.636;52;40.00;35025.20
1725979768.686;52;40.00;35025.20
1725979768.736;52;40.00;35025.20
1725979768.990;32;40.00;39510.54
