UnixTimestamp;Microseconds;MilliAmpere;BaseValue
1740135899.697;300;17.50;34772.13
1740135899.745;300;17.50;34772.13
1740135899.795;300;18.94;36824.00
1740135899.846;300;18.94;36824.00
1740135899.896;300;20.52;39075.73
1740135899.946;300;20.52;39075.73
1740135899.995;300;20.52;39075.73
1740135900.047;300;18.83;36664.40
1740135900.097;300;18.83;36664.40
1740135900.146;300;18.27;35864.80
1740135900.196;300;19.43;37523.54
1740135900.247;300;19.43;37523.54
1740135900.296;300;17.80;35189.07
1740135900.346;300;17.80;35189.07
1740135900.396;300;20.71;39347.27
1740135900.446;300;20.71;39347.27
1740135900.496;300;18.46;36134.00
1740135900.547;300;18.55;36265.87
1740135900.597;300;18.55;36265.87
1740135900.646;300;21.84;40960.87
1740135900.697;300;21.84;40960.87
1740135900.747;300;21.47;40443.67
1740135900.797;300;21.07;39873.54
1740135900.847;300;21.07;39873.54
1740135900.897;300;22.04;41248.20
1740135900.947;300;22.04;41248.20
1740135900.997;300;18.81;36642.13
1740135901.047;300;18.81;36642.13
1740135901.097;300;18.80;36622.54
1740135901.147;300;18.80;36622.54
1740135901.196;300;18.80;36622.54
1740135901.247;300;17.76;35132.00
1740135901.297;300;17.91;35357.33
1740135901.347;300;17.91;35357.33
1740135901.397;300;21.23;40101.54
1740135901.448;300;21.23;40101.54
1740135901.497;300;22.01;41207.13
1740135901.548;300;22.01;41207.13
1740135901.648;300;17.93;35388.67
1740135901.697;300;17.93;35388.67
1740135901.747;300;21.87;41005.33
1740135901.798;300;21.87;41005.33
1740135901.847;300;18.86;36709.33
1740135901.898;300;18.70;36476.60
1740135901.948;300;18.70;36476.60
1740135901.997;300;21.56;40569.13
1740135902.048;300;21.56;40569.13
1740135902.098;300;20.55;39129.27
1740135902.148;300;20.55;39129.27
1740135902.198;300;18.96;36851.27
1740135902.248;300;20.31;38783.54
1740135902.299;300;20.31;38783.54
1740135902.348;300;21.29;40177.93
1740135902.398;300;21.29;40177.93
1740135902.448;300;21.29;40177.93
1740135902.499;300;21.75;40844.00
1740135902.548;300;21.75;40844.00
1740135902.598;300;17.93;35384.60
1740135902.649;300;17.93;35384.60
1740135902.698;300;19.74;37960.33
1740135902.749;300;19.74;37960.33
1740135902.798;300;22.05;41267.60
1740135902.849;300;18.08;35591.87
1740135902.899;300;18.08;35591.87
1740135902.949;300;18.99;36902.07
1740135902.998;300;19.96;38287.87
1740135903.050;300;19.96;38287.87
1740135903.100;300;17.87;35297.73
1740135903.149;300;17.87;35297.73
1740135903.200;300;18.56;36280.27
1740135903.249;300;18.56;36280.27
1740135903.299;300;20.36;38858.73
1740135903.349;300;20.36;38858.73
1740135903.400;300;21.09;39902.20
1740135903.450;300;21.65;40699.67
1740135903.499;300;21.65;40699.67
1740135903.550;300;21.68;40736.73
1740135903.600;300;21.68;40736.73
1740135903.650;300;22.29;41608.87
1740135903.700;300;20.34;38821.40
1740135903.750;300;20.34;38821.40
1740135903.800;300;20.35;38835.87
1740135903.850;300;20.35;38835.87
1740135903.900;300;18.79;36616.67
1740135903.951;300;18.79;36616.67
1740135904.000;300;18.79;36616.67
1740135904.050;300;19.47;37588.33
1740135904.100;300;19.47;37588.33
1740135904.151;300;21.15;39980.87
1740135912.483;300;18.27;35861.60
1740135912.533;300;18.27;35861.60
1740135912.584;300;20.80;39487.13
1740135912.633;300;20.80;39487.13
1740135912.683;300;22.36;41704.40
1740135912.733;300;22.36;41704.40
1740135912.783;300;21.43;40377.80
1740135912.833;300;21.43;40377.80
1740135912.884;300;19.17;37153.93
1740135912.933;300;19.17;37153.93
1740135912.983;300;20.89;39615.54
1740135913.034;300;21.60;40618.54
1740135913.086;300;18.49;36181.20
1740135913.134;300;18.94;36817.33
1740135913.183;300;18.94;36817.33
1740135913.233;300;22.31;41631.07
1740135913.283;300;22.31;41631.07
1740135913.334;300;21.50;40475.07
1740135913.383;300;21.50;40475.07
1740135913.434;300;17.74;35109.60
1740135913.484;300;20.35;38831.13
1740135913.534;300;20.35;38831.13
1740135913.584;300;21.62;40655.73
1740135913.634;300;21.62;40655.73
1740135913.684;300;20.48;39024.07
1740135913.734;300;20.48;39024.07
1740135913.785;300;22.22;41514.20
1740135913.834;300;22.22;41514.20
1740135913.884;300;21.50;40486.87
1740135913.933;300;21.50;40486.87
1740135913.984;300;19.74;37972.40
1740135914.034;300;19.74;37972.40
1740135914.084;300;21.74;40821.46
1740135914.134;300;21.74;40821.46
1740135914.184;300;19.64;37822.20
1740135914.234;300;20.23;38662.80
1740135914.284;300;20.23;38662.80
1740135914.334;300;22.41;41773.93
1740135914.384;300;22.41;41773.93
1740135914.434;300;22.16;41421.80
1740135914.484;300;22.16;41421.80
1740135914.534;300;21.50;40484.80
1740135914.584;300;21.50;40484.80
1740135914.635;300;19.49;37606.67
1740135914.684;300;19.49;37606.67
1740135914.734;300;21.37;40291.73
1740135914.785;300;21.65;40699.93
1740135914.835;300;21.65;40699.93
1740135914.885;300;21.82;40936.46
1740135914.934;300;21.82;40936.46
1740135914.985;300;19.36;37423.73
1740135915.034;300;19.36;37423.73
1740135915.084;300;21.87;41016.00
1740135915.135;300;21.87;41016.00
1740135915.185;300;19.73;37947.73
1740135915.235;300;19.73;37947.73
1740135915.285;300;22.22;41505.67
1740135915.335;300;22.22;41505.67
1740135915.385;300;19.01;36926.60
1740135915.435;300;19.65;37831.93
1740135915.485;300;19.72;37931.40
1740135915.535;300;18.11;35632.00
1740135915.586;300;18.11;35632.00
1740135915.635;300;18.47;36153.73
1740135915.685;300;18.47;36153.73
1740135915.736;300;21.04;39818.60
1740135915.786;300;21.02;39790.54
1740135915.836;300;21.02;39790.54
1740135915.886;300;22.06;41280.73
1740135915.936;300;22.06;41280.73
1740135915.985;300;22.14;41392.67
1740135916.036;300;22.14;41392.67
1740135916.087;300;20.71;39348.20
1740135916.136;300;20.71;39348.20
1740135916.186;300;18.65;36416.54
1740135916.236;300;18.65;36416.54
1740135916.286;300;20.42;38932.07
1740135916.336;300;20.42;38932.07
1740135916.386;300;20.69;39328.00
1740135916.436;300;20.69;39328.00
1740135916.486;300;18.67;36437.00
1740135916.536;300;18.28;35882.87
1740135916.586;300;18.28;35882.87
1740135916.635;300;21.28;40159.46
1740135916.686;300;21.28;40159.46
1740135924.479;300;18.31;35931.20
1740135924.529;300;18.30;35903.46
1740135924.579;300;22.04;41249.54
1740135924.630;300;22.04;41249.54
1740135924.679;300;22.26;41560.93
1740135924.729;300;22.26;41560.93
1740135924.780;300;20.92;39658.27
1740135924.829;300;20.92;39658.27
1740135924.879;300;20.19;38604.73
1740135924.929;300;20.19;38604.73
1740135924.980;300;19.14;37104.33
1740135925.029;300;19.14;37104.33
1740135925.080;300;20.99;39747.87
1740135925.129;300;19.47;37587.40
1740135925.179;300;19.47;37587.40
1740135925.229;300;21.58;40588.73
1740135925.279;300;21.58;40588.73
1740135925.329;300;21.21;40069.46
1740135925.381;300;21.21;40069.46
1740135925.431;300;22.19;41467.33
1740135925.481;300;22.19;41467.33
1740135925.531;300;20.52;39086.46
1740135925.581;300;20.52;39086.46
1740135925.631;300;22.04;41252.73
1740135925.681;300;22.04;41252.73
1740135925.732;300;21.48;40455.13
1740135925.782;300;21.33;40241.93
1740135925.831;300;17.77;35156.40
1740135925.882;300;21.50;40480.80
1740135925.932;300;21.50;40480.80
1740135925.982;300;19.74;37965.00
1740135926.032;300;19.74;37965.00
1740135926.082;300;21.61;40640.60
1740135926.132;300;21.61;40640.60
1740135926.182;300;19.61;37787.87
1740135926.232;300;18.62;36368.46
1740135926.281;300;18.20;35768.67
1740135926.332;300;21.97;41152.40
1740135926.382;300;21.97;41152.40
1740135926.432;300;22.18;41455.13
1740135926.482;300;22.18;41455.13
1740135926.532;300;22.11;41350.46
1740135926.582;300;22.11;41350.46
1740135926.632;300;22.10;41333.80
1740135926.683;300;22.10;41333.80
1740135926.732;300;18.32;35935.73
1740135926.782;300;18.32;35935.73
1740135926.833;300;22.38;41731.87
1740135926.882;300;22.38;41731.87
1740135926.933;300;19.47;37580.40
1740135926.982;300;19.47;37580.40
1740135927.034;300;20.59;39177.33
1740135927.084;300;18.55;36272.27
1740135927.134;300;18.21;35788.54
1740135927.184;300;22.03;41236.07
1740135927.233;300;22.03;41236.07
1740135927.283;300;21.71;40783.80
1740135927.334;300;21.71;40783.80
1740135927.385;300;22.15;41410.54
1740135927.433;300;22.15;41410.54
1740135927.485;300;19.13;37089.60
1740135927.535;300;19.66;37858.00
1740135927.585;300;21.76;40854.67
1740135927.634;300;21.42;40363.13
1740135927.684;300;21.42;40363.13
1740135927.735;300;21.14;39973.07
1740135927.785;300;21.14;39973.07
1740135927.836;300;21.31;40209.40
1740135927.886;300;21.31;40209.40
1740135927.935;300;19.88;38160.33
1740135927.985;300;19.88;38160.33
1740135928.036;300;22.28;41598.87
1740135928.086;300;22.28;41598.87
1740135928.137;300;21.45;40407.60
1740135928.187;300;21.45;40407.60
1740135928.237;300;19.86;38143.00
1740135928.287;300;21.64;40683.60
1740135928.338;300;21.64;40683.60
1740135928.388;300;21.60;40623.27
1740135928.438;300;21.60;40623.27
1740135928.488;300;21.97;41149.67
1740135928.538;300;21.97;41149.67
1740135928.588;300;21.85;40978.67
1740135928.638;300;21.85;40978.67
1740135928.688;300;22.05;41266.07
1740135928.738;300;22.05;41266.07
1740135928.788;300;19.54;37676.13
1740136014.636;400;17.83;35243.73
1740136014.686;400;17.83;35243.73
1740136014.736;400;22.34;41680.93
1740136014.786;400;22.34;41680.93
1740136014.836;400;22.37;41719.07
1740136014.886;400;21.25;40125.80
1740136014.936;400;21.25;40125.80
1740136014.986;400;18.09;35608.27
1740136015.036;400;18.09;35608.27
1740136015.086;400;22.40;41772.07
1740136015.136;400;22.40;41772.07
1740136015.186;400;21.26;40143.40
1740136015.236;400;21.26;40143.40
1740136015.287;400;20.18;38598.20
1740136015.337;400;20.40;38906.60
1740136015.387;400;20.40;38906.60
1740136015.436;400;21.93;41093.93
1740136015.491;400;21.93;41093.93
1740136015.540;400;19.89;38180.13
1740136015.590;400;19.89;38180.13
1740136015.640;400;21.27;40154.33
1740136015.690;400;21.27;40154.33
1740136015.740;400;21.46;40430.07
1740136015.790;400;21.46;40430.07
1740136015.840;400;19.36;37429.73
1740136015.890;400;18.87;36724.73
1740136015.939;400;18.87;36724.73
1740136015.990;400;19.52;37652.07
1740136016.040;400;19.52;37652.07
1740136016.090;400;19.46;37562.46
1740136016.140;400;19.46;37562.46
1740136016.190;400;22.27;41581.20
1740136016.240;400;22.27;41581.20
1740136016.290;400;21.36;40276.80
1740136016.340;400;21.36;40276.80
1740136016.491;400;17.56;34858.13
1740136016.543;400;17.56;34858.13
1740136016.592;400;17.70;35058.80
1740136016.643;400;17.70;35058.80
1740136016.743;400;17.60;34903.60
1740136016.792;400;17.60;34903.60
1740136016.843;400;18.51;36215.46
1740136016.892;400;18.51;36215.46
1740136016.943;400;22.11;41352.60
1740136016.993;400;22.11;41352.60
1740136017.043;400;21.35;40270.00
1740136017.093;400;21.35;40270.00
1740136017.142;400;21.30;40201.07
1740136017.192;400;21.30;40201.07
1740136017.243;400;19.77;38006.80
1740136017.293;400;19.77;38006.80
1740136017.343;400;22.35;41692.67
1740136017.393;400;22.35;41692.67
1740136017.443;400;22.35;41692.67
1740136017.493;400;18.99;36889.07
1740136017.543;400;18.99;36889.07
1740136017.593;400;21.60;40626.54
1740136017.643;400;21.60;40626.54
1740136017.693;400;20.33;38806.67
1740136017.743;400;20.33;38806.67
1740136017.793;400;22.11;41355.46
1740136017.843;400;20.21;38632.87
1740136017.894;400;20.21;38632.87
1740136017.943;400;21.58;40595.40
1740136017.994;400;21.58;40595.40
1740136018.044;400;22.09;41329.87
1740136018.094;400;22.09;41329.87
1740136018.144;400;21.95;41118.46
1740136018.194;400;21.95;41118.46
1740136018.244;400;21.99;41183.80
1740136018.294;400;21.99;41183.80
1740136018.344;400;20.99;39755.46
1740136018.394;400;20.99;39755.46
1740136018.444;400;20.92;39646.00
1740136018.494;400;20.92;39646.00
1740136018.544;400;22.25;41548.67
1740136018.593;400;22.25;41548.67
1740136018.643;400;18.50;36197.46
1740136026.840;400;17.72;35080.27
1740136026.890;400;17.71;35070.67
1740136026.940;400;17.71;35070.67
1740136026.990;400;17.98;35449.87
1740136027.040;400;20.52;39086.27
1740136027.090;400;20.52;39086.27
1740136027.140;400;21.33;40236.67
1740136027.190;400;21.74;40830.67
1740136027.240;400;21.74;40830.67
1740136027.290;400;22.21;41496.40
1740136027.340;400;22.21;41496.40
1740136027.390;400;22.31;41644.54
1740136027.440;400;22.31;41644.54
1740136027.490;400;18.03;35528.00
1740136027.540;400;18.03;35528.00
1740136027.590;400;20.44;38971.40
1740136027.641;400;22.13;41375.87
1740136027.691;400;22.13;41375.87
1740136027.741;400;21.19;40044.00
1740136027.791;400;21.19;40044.00
1740136027.842;400;20.22;38645.93
1740136027.893;400;20.22;38645.93
1740136027.942;400;22.17;41439.40
1740136027.993;400;22.17;41439.40
1740136028.042;400;20.00;38334.33
1740136028.093;400;20.00;38334.33
1740136028.142;400;18.86;36706.27
1740136028.192;400;18.86;36706.27
1740136028.243;400;18.95;36839.33
1740136028.293;400;18.95;36839.33
1740136028.342;400;22.15;41414.87
1740136028.393;400;22.15;41414.87
1740136028.443;400;20.14;38539.27
1740136028.493;400;19.42;37503.13
1740136028.542;400;19.54;37674.87
1740136028.593;400;19.54;37674.87
1740136028.642;400;22.09;41322.27
1740136028.692;400;22.23;41527.93
1740136028.743;400;22.23;41527.93
1740136028.793;400;21.98;41169.80
1740136028.842;400;21.98;41169.80
1740136028.893;400;19.46;37572.13
1740136028.943;400;19.46;37572.13
1740136028.994;400;17.86;35287.87
1740136029.044;400;17.86;35287.87
1740136029.094;400;21.23;40091.33
1740136029.144;400;22.00;41193.67
1740136029.194;400;19.49;37614.54
1740136029.244;400;22.25;41549.80
1740136029.295;400;22.25;41549.80
1740136029.344;400;19.83;38093.46
1740136029.394;400;19.83;38093.46
1740136029.444;400;20.44;38969.87
1740136029.494;400;20.44;38969.87
1740136029.544;400;19.59;37750.27
1740136029.595;400;19.59;37750.27
1740136029.645;400;21.24;40102.60
1740136029.695;400;21.24;40102.60
1740136029.744;400;22.09;41320.40
1740136029.795;400;22.17;41437.67
1740136029.845;400;21.35;40265.20
1740136029.895;400;19.92;38218.60
1740136029.946;400;19.92;38218.60
1740136029.996;400;20.95;39689.80
1740136030.045;400;20.95;39689.80
1740136030.095;400;18.89;36746.80
1740136030.146;400;18.89;36746.80
1740136030.196;400;18.67;36437.07
1740136030.246;400;18.67;36437.07
1740136030.297;400;20.26;38703.13
1740136030.346;400;20.26;38703.13
1740136030.397;400;18.89;36755.33
1740136030.447;400;21.37;40301.67
1740136030.498;400;21.72;40795.40
1740136030.547;400;19.66;37850.73
1740136030.597;400;19.66;37850.73
1740136030.648;400;18.73;36524.93
1740136030.697;400;18.73;36524.93
1740136030.747;400;22.11;41354.07
1740136030.798;400;22.11;41354.07
1740136030.847;400;18.46;36134.87
1740136030.898;400;18.46;36134.87
1740136039.113;400;18.63;36383.87
1740136039.164;400;18.63;36383.87
1740136039.215;400;18.34;35973.07
1740136039.264;400;18.63;36386.93
1740136039.314;400;18.80;36618.27
1740136039.365;400;18.80;36618.27
1740136039.414;400;20.19;38606.93
1740136039.464;400;20.19;38606.93
1740136039.515;400;21.93;41092.27
1740136039.565;400;22.08;41313.33
1740136039.615;400;22.08;41313.33
1740136039.665;400;22.07;41297.27
1740136039.715;400;22.07;41297.27
1740136039.765;400;21.47;40439.33
1740136039.816;400;21.47;40439.33
1740136039.865;400;21.98;41167.87
1740136039.915;400;21.98;41167.87
1740136039.965;400;19.94;38249.54
1740136040.016;400;19.94;38249.54
1740136040.065;400;21.21;40067.00
1740136040.115;400;21.21;40067.00
1740136040.166;400;19.88;38172.07
1740136040.216;400;19.88;38172.07
1740136040.266;400;18.13;35671.93
1740136040.316;400;18.13;35671.93
1740136040.366;400;18.49;36186.67
1740136040.416;400;20.15;38553.00
1740136040.466;400;20.84;39536.54
1740136040.516;400;22.45;41839.07
1740136040.566;400;22.45;41839.07
1740136040.616;400;19.16;37136.54
1740136040.666;400;19.16;37136.54
1740136040.717;400;22.04;41249.00
1740136040.766;400;22.04;41249.00
1740136040.816;400;22.17;41434.80
1740136040.866;400;22.17;41434.80
1740136040.916;400;17.97;35446.00
1740136040.966;400;17.97;35446.00
1740136041.016;400;18.71;36501.00
1740136041.066;400;18.71;36501.00
1740136041.116;400;21.04;39828.46
1740136041.166;400;22.34;41676.20
1740136041.216;400;22.34;41676.20
1740136041.267;400;20.23;38672.07
1740136041.316;400;20.23;38672.07
1740136041.366;400;19.44;37538.73
1740136041.417;400;19.44;37538.73
1740136041.467;400;19.54;37680.07
1740136041.517;400;19.54;37680.07
1740136041.567;400;18.81;36632.60
1740136041.617;400;18.81;36632.60
1740136041.667;400;19.63;37814.54
1740136041.718;400;19.63;37814.54
1740136041.767;400;18.80;36626.60
1740136041.818;400;18.80;36626.60
1740136041.867;400;20.05;38414.00
1740136041.917;400;20.05;38414.00
1740136041.968;400;20.81;39492.60
1740136042.018;400;20.81;39492.60
1740136042.067;400;21.89;41033.54
1740136042.117;400;22.69;42174.20
1740136042.168;400;21.98;41161.07
1740136042.217;400;21.44;40400.54
1740136042.267;400;21.44;40400.54
1740136042.317;400;21.37;40291.27
1740136042.367;400;21.37;40291.27
1740136042.418;400;19.39;37461.27
1740136042.467;400;19.39;37461.27
1740136042.518;400;20.68;39316.67
1740136042.567;400;20.68;39316.67
1740136042.618;400;18.46;36140.20
1740136042.667;400;21.92;41075.40
1740136042.718;400;21.92;41075.40
1740136042.768;400;18.13;35664.54
1740136042.817;400;18.13;35664.54
1740136042.867;400;18.51;36204.93
1740136042.917;400;18.51;36204.93
1740136042.968;400;18.64;36391.46
1740136043.018;400;18.64;36391.46
1740136043.068;400;18.47;36159.46
1740136043.118;400;18.47;36159.46
1740136124.389;95;10.00;35242.80
1740136124.439;95;10.00;35242.80
1740136124.489;95;10.00;35218.00
1740136124.538;110;10.00;39320.27
1740136124.588;110;10.00;39320.27
1740136124.639;113;10.00;40060.60
1740136124.689;113;10.00;40060.60
1740136124.739;97;10.00;35961.33
1740136124.790;97;10.00;35961.33
1740136124.839;101;10.00;36856.33
1740136124.889;97;10.00;35791.20
1740136124.939;97;10.00;35791.20
1740136124.989;101;10.00;36890.27
1740136125.039;97;10.00;35812.54
1740136125.089;97;10.00;35812.54
1740136125.139;105;10.00;38060.93
1740136125.190;105;10.00;38060.93
1740136125.239;104;10.00;37751.40
1740136125.290;105;10.00;37993.80
1740136125.339;105;10.00;37993.80
1740136125.391;105;10.00;37851.67
1740136125.440;105;10.00;37851.67
1740136125.491;103;10.00;37360.54
1740136125.541;99;10.00;36456.27
1740136125.591;99;10.00;36456.27
1740136125.641;99;10.00;36309.60
1740136125.691;99;10.00;36309.60
1740136125.741;97;10.00;35825.07
1740136125.792;97;10.00;35825.07
1740136125.841;97;10.00;35935.27
1740136125.892;101;10.00;37008.80
1740136125.941;101;10.00;37008.80
1740136125.993;98;10.00;36165.60
1740136126.042;98;10.00;36165.60
1740136126.092;96;10.00;35648.54
1740136126.142;105;10.00;38008.93
1740136126.192;105;10.00;38008.93
1740136126.242;103;10.00;37404.93
1740136126.292;103;10.00;37404.93
1740136126.342;109;10.00;38898.80
1740136126.592;95;10.00;35171.20
1740136126.643;106;10.00;38286.54
1740136126.692;106;10.00;38286.54
1740136126.743;101;10.00;36961.27
1740136126.794;101;10.00;36961.27
1740136126.842;107;10.00;38374.20
1740136126.893;106;10.00;38112.60
1740136126.942;106;10.00;38112.60
1740136126.992;106;10.00;38244.20
1740136127.043;106;10.00;38244.20
1740136127.093;96;10.00;35649.33
1740136127.142;103;10.00;37437.27
1740136127.193;103;10.00;37437.27
1740136127.243;104;10.00;37809.93
1740136127.293;104;10.00;37809.93
1740136127.342;110;10.00;39225.60
1740136127.394;110;10.00;39225.60
1740136127.443;110;10.00;39225.60
1740136127.494;102;10.00;37140.73
1740136127.543;102;10.00;37140.73
1740136127.594;104;10.00;37816.33
1740136127.644;104;10.00;37816.33
1740136127.694;107;10.00;38396.33
1740136127.743;102;10.00;37080.73
1740136127.794;102;10.00;37080.73
1740136127.843;106;10.00;38108.60
1740136127.894;106;10.00;38108.60
1740136127.944;108;10.00;38702.46
1740136127.994;108;10.00;38702.46
1740136128.044;100;10.00;36717.13
1740136128.094;99;10.00;36315.46
1740136128.143;99;10.00;36315.46
1740136128.193;103;10.00;37559.93
1740136128.244;103;10.00;37559.93
1740136128.294;103;10.00;37559.93
1740136128.343;107;10.00;38626.33
1740136128.393;107;10.00;38626.33
1740136128.444;110;10.00;39383.54
1740136128.494;110;10.00;39383.54
1740136128.544;103;10.00;37402.54
1740136128.594;103;10.00;37402.54
1740136128.644;103;10.00;37402.54
1740136128.693;102;10.00;37091.73
1740136128.744;102;10.00;37091.73
1740136128.794;102;10.00;37091.73
1740136128.843;103;10.00;37313.60
1740136128.894;103;10.00;37313.60
1740136137.938;97;10.00;35956.27
1740136137.988;97;10.00;35956.27
1740136138.038;100;10.00;36724.00
1740136138.088;107;10.00;38446.60
1740136138.138;107;10.00;38446.60
1740136138.188;97;10.00;35839.20
1740136138.238;97;10.00;35839.20
1740136138.288;112;10.00;39900.07
1740136138.338;104;10.00;37755.60
1740136138.388;104;10.00;37755.60
1740136138.438;97;10.00;35914.80
1740136138.488;97;10.00;35914.80
1740136138.538;102;10.00;37203.93
1740136138.588;107;10.00;38367.13
1740136138.638;107;10.00;38367.13
1740136138.688;99;10.00;36272.27
1740136138.738;99;10.00;36272.27
1740136138.788;98;10.00;36040.46
1740136138.838;108;10.00;38742.80
1740136138.888;108;10.00;38742.80
1740136138.938;101;10.00;36924.54
1740136138.988;101;10.00;36924.54
1740136139.038;96;10.00;35694.67
1740136139.088;96;10.00;35694.67
1740136139.138;97;10.00;35946.00
1740136139.188;93;10.00;34779.87
1740136139.238;93;10.00;34779.87
1740136139.439;94;10.00;34981.20
1740136139.488;94;10.00;34981.20
1740136139.539;107;10.00;38414.20
1740136139.588;107;10.00;38414.20
1740136139.639;106;10.00;38151.00
1740136139.688;106;10.00;38151.00
1740136139.739;106;10.00;38151.00
1740136139.789;104;10.00;37788.00
1740136139.839;104;10.00;37788.00
1740136139.888;95;10.00;35297.46
1740136139.938;95;10.00;35297.46
1740136139.988;94;10.00;35000.67
1740136140.039;99;10.00;36480.00
1740136140.088;99;10.00;36480.00
1740136140.138;96;10.00;35642.00
1740136140.188;96;10.00;35642.00
1740136140.239;95;10.00;35252.00
1740136140.289;99;10.00;36267.67
1740136140.339;99;10.00;36267.67
1740136140.393;97;10.00;35823.67
1740136140.441;97;10.00;35823.67
1740136140.491;97;10.00;35823.67
1740136140.541;95;10.00;35291.60
1740136140.591;95;10.00;35291.60
1740136140.641;103;10.00;37546.60
1740136140.691;103;10.00;37546.60
1740136140.741;106;10.00;38140.60
1740136140.791;107;10.00;38602.87
1740136140.841;107;10.00;38602.87
1740136140.891;104;10.00;37656.33
1740136140.941;104;10.00;37652.00
1740136140.991;104;10.00;37652.00
1740136141.042;95;10.00;35334.40
1740136141.092;95;10.00;35334.40
1740136141.142;97;10.00;35921.07
1740136141.192;97;10.00;35921.07
1740136141.243;101;10.00;36814.13
1740136141.293;105;10.00;37967.54
1740136141.343;105;10.00;37967.54
1740136141.393;103;10.00;37534.40
1740136141.443;103;10.00;37534.40
1740136141.492;103;10.00;37534.40
1740136141.543;110;10.00;39312.40
1740136141.593;110;10.00;39312.40
1740136141.644;99;10.00;36391.93
1740136141.694;99;10.00;36391.93
1740136141.743;104;10.00;37721.33
1740136141.793;100;10.00;36604.67
1740136141.843;100;10.00;36604.67
1740136141.894;96;10.00;35478.93
1740136141.944;96;10.00;35478.93
1740136141.994;99;10.00;36403.27
1740136142.044;109;10.00;39096.93
1740136142.094;109;10.00;39096.93
1740136142.143;106;10.00;38320.27
1740136142.194;106;10.00;38320.27
1740136142.244;98;10.00;36078.93
1740136142.294;98;10.00;36078.93
1740136142.344;99;10.00;36342.27
1740136142.394;104;10.00;37576.13
1740136142.443;104;10.00;37576.13
1740136142.495;108;10.00;38836.27
1740136142.544;108;10.00;38836.27
1740136142.595;108;10.00;38836.27
1740136142.644;112;10.00;39846.60
1740136142.695;112;10.00;39846.60
1740136151.555;94;10.00;35087.46
1740136151.605;94;10.00;35087.46
1740136151.654;102;10.00;37258.93
1740136151.706;98;10.00;36134.40
1740136151.756;100;10.00;36522.46
1740136151.805;100;10.00;36522.46
1740136151.855;97;10.00;35806.67
1740136151.906;97;10.00;35806.67
1740136151.955;99;10.00;36362.07
1740136152.006;104;10.00;37815.00
1740136152.055;94;10.00;35032.54
1740136152.105;99;10.00;36290.54
1740136152.155;99;10.00;36290.54
1740136152.206;101;10.00;36868.00
1740136152.256;99;10.00;36342.00
1740136152.306;99;10.00;36250.54
1740136152.356;102;10.00;37093.33
1740136152.406;102;10.00;37093.33
1740136152.456;111;10.00;39674.00
1740136152.507;111;10.00;39674.00
1740136152.557;100;10.00;36563.67
1740136152.608;100;10.00;36563.67
1740136152.658;111;10.00;39536.93
1740136152.707;111;10.00;39536.93
1740136152.758;101;10.00;36999.87
1740136152.807;101;10.00;36999.87
1740136152.858;94;10.00;34994.40
1740136152.907;94;10.00;34994.40
1740136153.158;95;10.00;35194.80
1740136153.208;104;10.00;37752.27
1740136153.259;104;10.00;37752.27
1740136153.308;99;10.00;36334.13
1740136153.359;99;10.00;36334.13
1740136153.409;93;10.00;34807.67
1740136153.459;93;10.00;34807.67
1740136153.514;107;10.00;38573.00
1740136153.562;98;10.00;36181.54
1740136153.612;98;10.00;36181.54
1740136153.662;103;10.00;37561.87
1740136153.712;103;10.00;37561.87
1740136153.762;104;10.00;37815.73
1740136153.812;104;10.00;37815.73
1740136153.862;99;10.00;36342.27
1740136153.912;99;10.00;36342.27
1740136153.962;104;10.00;37650.00
1740136154.012;104;10.00;37650.00
1740136154.062;105;10.00;37833.87
1740136154.112;105;10.00;37833.87
1740136154.162;99;10.00;36460.46
1740136154.212;99;10.00;36460.46
1740136154.262;102;10.00;37195.73
1740136154.313;102;10.00;37195.73
1740136154.362;102;10.00;37283.46
1740136154.413;113;10.00;40091.27
1740136154.462;113;10.00;40091.27
1740136154.513;108;10.00;38720.73
1740136154.562;108;10.00;38720.73
1740136154.612;109;10.00;38986.13
1740136154.662;109;10.00;38986.13
1740136154.712;102;10.00;37068.87
1740136154.763;102;10.00;37068.87
1740136154.812;112;10.00;39839.60
1740136154.862;100;10.00;36572.07
1740136154.912;100;10.00;36572.07
1740136154.962;115;10.00;40577.87
1740136155.013;115;10.00;40577.87
1740136155.063;109;10.00;38990.80
1740136155.112;109;10.00;38990.80
1740136155.162;102;10.00;37284.93
1740136155.212;102;10.00;37284.93
1740136155.263;103;10.00;37444.54
1740136155.312;103;10.00;37444.54
1740136155.363;111;10.00;39440.00
1740136155.412;111;10.00;39440.00
1740136155.462;108;10.00;38684.33
1740136155.512;108;10.00;38684.33
1740136155.562;103;10.00;37411.00
1740136240.647;96;50.00;35543.20
1740136240.697;96;50.00;35543.20
1740136240.747;112;50.00;39739.40
1740136240.798;112;50.00;39739.40
1740136240.847;112;50.00;39739.40
1740136240.897;120;50.00;42037.33
1740136240.947;120;50.00;42037.33
1740136240.997;109;50.00;39059.60
1740136241.047;109;50.00;39059.60
1740136241.248;94;50.00;34982.40
1740136241.298;94;50.00;34982.40
1740136241.347;100;50.00;36670.46
1740136241.397;105;50.00;37916.60
1740136241.448;105;50.00;37916.60
1740136241.498;118;50.00;41474.20
1740136241.548;118;50.00;41474.20
1740136241.598;108;50.00;38710.20
1740136241.648;108;50.00;38710.20
1740136241.698;94;50.00;35061.40
1740136241.748;94;50.00;35061.40
1740136241.798;112;50.00;39696.67
1740136241.848;102;50.00;37066.00
1740136241.898;102;50.00;37066.00
1740136241.950;113;50.00;40021.07
1740136241.999;99;50.00;36275.07
1740136242.048;99;50.00;36275.07
1740136242.099;116;50.00;40904.54
1740136242.148;116;50.00;40904.54
1740136242.198;113;50.00;40165.73
1740136242.249;113;50.00;40165.73
1740136242.298;113;50.00;40165.73
1740136242.349;109;50.00;38972.54
1740136242.399;109;50.00;38972.54
1740136242.449;114;50.00;40302.33
1740136242.499;116;50.00;40777.27
1740136242.549;116;50.00;40777.27
1740136242.599;102;50.00;37148.73
1740136242.650;102;50.00;37148.73
1740136242.699;110;50.00;39424.60
1740136242.750;110;50.00;39424.60
1740136242.801;119;50.00;41616.87
1740136242.851;119;50.00;41616.87
1740136242.901;119;50.00;41616.87
1740136243.051;100;50.00;36513.54
1740136243.101;96;50.00;35666.40
1740136243.152;96;50.00;35666.40
1740136243.201;118;50.00;41349.40
1740136243.252;118;50.00;41349.40
1740136243.302;113;50.00;39985.67
1740136243.352;113;50.00;39985.67
1740136243.402;113;50.00;39985.67
1740136243.452;120;50.00;41984.33
1740136243.502;120;50.00;41984.33
1740136243.552;119;50.00;41815.73
1740136243.602;119;50.00;41815.73
1740136243.652;119;50.00;41707.07
1740136243.702;116;50.00;40809.93
1740136243.752;116;50.00;40809.93
1740136243.802;114;50.00;40433.40
1740136243.852;114;50.00;40433.40
1740136243.902;95;50.00;35289.60
1740136243.952;95;50.00;35289.60
1740136244.003;99;50.00;36297.07
1740136244.052;111;50.00;39497.07
1740136244.102;111;50.00;39497.07
1740136244.152;97;50.00;35730.27
1740136244.302;98;50.00;36026.54
1740136244.352;98;50.00;36026.54
1740136244.402;108;50.00;38757.80
1740136244.452;108;50.00;38757.80
1740136244.502;97;50.00;35871.07
1740136244.552;104;50.00;37576.40
1740136244.602;104;50.00;37576.40
1740136244.652;118;50.00;41512.13
1740136244.702;118;50.00;41512.13
1740136244.752;118;50.00;41481.46
1740136244.802;106;50.00;38291.20
1740136244.852;106;50.00;38291.20
1740136244.902;108;50.00;38893.93
1740136244.952;108;50.00;38893.93
1740136245.002;118;50.00;41374.80
1740136245.052;118;50.00;41374.80
1740136245.102;118;50.00;41374.80
1740136245.152;111;50.00;39459.67
1740136245.203;111;50.00;39459.67
1740136245.252;107;50.00;38537.00
1740136245.302;102;50.00;37213.07
1740136245.354;102;50.00;37213.07
1740136254.468;97;50.00;35748.00
1740136254.518;101;50.00;36770.80
1740136254.568;101;50.00;36770.80
1740136254.618;118;50.00;41409.20
1740136254.667;118;50.00;41409.20
1740136254.719;109;50.00;39095.60
1740136254.768;110;50.00;39411.67
1740136254.818;110;50.00;39411.67
1740136254.869;119;50.00;41563.20
1740136254.918;119;50.00;41563.20
1740136254.969;93;50.00;34827.46
1740136255.019;95;50.00;35310.13
1740136255.069;95;50.00;35310.13
1740136255.120;116;50.00;40816.13
1740136255.169;116;50.00;40816.13
1740136255.218;110;50.00;39169.00
1740136255.269;110;50.00;39169.00
1740136255.319;93;50.00;34818.40
1740136255.369;96;50.00;35529.27
1740136255.418;96;50.00;35529.27
1740136255.469;114;50.00;40266.40
1740136255.519;114;50.00;40266.40
1740136255.569;114;50.00;40266.40
1740136255.619;101;50.00;36957.46
1740136255.669;101;50.00;36957.46
1740136255.719;117;50.00;41274.73
1740136255.769;117;50.00;41274.73
1740136255.820;104;50.00;37782.27
1740136255.871;94;50.00;35094.13
1740136255.921;94;50.00;35094.13
1740136255.971;120;50.00;41891.54
1740136256.021;120;50.00;41891.54
1740136256.071;117;50.00;41248.13
1740136256.473;95;50.00;35307.46
1740136256.522;95;50.00;35307.46
1740136256.623;93;50.00;34896.80
1740136256.673;93;50.00;34896.80
1740136256.722;96;50.00;35537.33
1740136256.772;96;50.00;35537.33
1740136256.822;110;50.00;39183.07
1740136256.873;110;50.00;39183.07
1740136256.924;108;50.00;38674.73
1740136256.974;111;50.00;39513.27
1740136257.024;111;50.00;39513.27
1740136257.074;120;50.00;41851.80
1740136257.124;122;50.00;42545.54
1740136257.174;122;50.00;42545.54
1740136257.224;105;50.00;38037.73
1740136257.273;105;50.00;38037.73
1740136257.325;102;50.00;37054.13
1740136257.374;102;50.00;37054.13
1740136257.424;112;50.00;39749.13
1740136257.474;94;50.00;35139.73
1740136257.524;94;50.00;35139.73
1740136257.574;114;50.00;40417.40
1740136257.624;114;50.00;40417.40
1740136257.674;114;50.00;40417.40
1740136257.724;112;50.00;39765.60
1740136257.774;112;50.00;39765.60
1740136257.823;98;50.00;36121.46
1740136257.874;98;50.00;36121.46
1740136257.924;100;50.00;36668.80
1740136257.974;101;50.00;36906.00
1740136258.024;101;50.00;36906.00
1740136258.075;109;50.00;39093.07
1740136258.124;109;50.00;39093.07
1740136258.325;100;50.00;36569.40
1740136258.376;100;50.00;36569.40
1740136258.426;119;50.00;41730.73
1740136258.477;119;50.00;41730.73
1740136258.526;119;50.00;41730.73
1740136258.576;100;50.00;36694.80
1740136258.626;100;50.00;36694.80
1740136258.676;113;50.00;40116.33
1740136258.726;113;50.00;40116.33
1740136258.776;114;50.00;40230.13
1740136258.827;109;50.00;39131.80
1740136258.877;109;50.00;39131.80
1740136267.960;97;50.00;35797.20
1740136268.009;96;50.00;35538.67
1740136268.161;95;50.00;35306.67
1740136268.361;97;50.00;35810.93
1740136268.411;97;50.00;35810.93
1740136268.461;97;50.00;35851.46
1740136268.511;97;50.00;35851.46
1740136268.561;97;50.00;35851.46
1740136268.611;112;50.00;39932.20
1740136268.661;112;50.00;39932.20
1740136268.711;96;50.00;35662.54
1740136268.761;96;50.00;35662.54
1740136268.811;100;50.00;36621.80
1740136268.963;97;50.00;35733.46
1740136269.013;97;50.00;35733.46
1740136269.063;96;50.00;35457.00
1740136269.113;96;50.00;35452.13
1740136269.164;96;50.00;35452.13
1740136269.213;98;50.00;36125.73
1740136269.264;98;50.00;36125.73
1740136269.314;114;50.00;40262.13
1740136269.364;114;50.00;40262.13
1740136269.414;117;50.00;41221.07
1740136269.463;115;50.00;40654.40
1740136269.514;115;50.00;40654.40
1740136269.564;116;50.00;40997.27
1740136269.614;116;50.00;40997.27
1740136269.664;114;50.00;40485.60
1740136269.714;115;50.00;40673.13
1740136269.764;115;50.00;40673.13
1740136269.814;106;50.00;38284.80
1740136269.864;106;50.00;38284.80
1740136269.914;120;50.00;41853.93
1740136269.965;120;50.00;41853.93
1740136270.014;120;50.00;41853.93
1740136270.065;116;50.00;40791.33
1740136270.114;116;50.00;40791.33
1740136270.164;108;50.00;38768.67
1740136270.214;108;50.00;38768.67
1740136270.265;108;50.00;38768.67
1740136270.315;117;50.00;41066.07
1740136270.364;117;50.00;41066.07
1740136270.415;107;50.00;38566.80
1740136270.465;107;50.00;38566.80
1740136270.514;116;50.00;40811.93
1740136270.565;108;50.00;38725.60
1740136270.615;108;50.00;38725.60
1740136270.665;112;50.00;39821.27
1740136270.714;112;50.00;39821.27
1740136270.765;106;50.00;38253.73
1740136270.815;96;50.00;35461.93
1740136270.864;96;50.00;35461.93
1740136270.914;115;50.00;40680.93
1740136270.965;115;50.00;40680.93
1740136271.015;105;50.00;38046.33
1740136271.065;105;50.00;38046.33
1740136271.115;110;50.00;39332.07
1740136271.165;101;50.00;36978.00
1740136271.215;101;50.00;36978.00
1740136271.265;95;50.00;35399.60
1740136271.315;95;50.00;35399.60
1740136271.365;111;50.00;39653.80
1740136271.415;120;50.00;41852.33
1740136271.465;120;50.00;41852.33
1740136271.515;100;50.00;36547.67
1740136271.566;100;50.00;36547.67
1740136271.616;119;50.00;41773.80
1740136271.667;119;50.00;41773.80
1740136271.716;119;50.00;41773.80
1740136271.766;99;50.00;36409.27
1740136271.816;99;50.00;36409.27
1740136271.866;109;50.00;38940.67
1740136271.916;107;50.00;38462.54
1740136271.966;107;50.00;38462.54
1740136272.017;118;50.00;41461.73
1740136272.067;118;50.00;41461.73
1740136272.116;98;50.00;36133.73
1740136272.166;98;50.00;36133.73
1740136272.216;98;50.00;36137.87
1740136272.266;109;50.00;39075.07
1740136272.316;109;50.00;39075.07
1740136353.471;97;30.00;35811.67
1740136353.522;97;30.00;35811.67
1740136353.572;118;30.00;41460.46
1740136353.622;118;30.00;41460.46
1740136353.672;118;30.00;41460.46
1740136353.722;114;30.00;40443.67
1740136353.772;114;30.00;40443.67
1740136353.822;96;30.00;35662.40
1740136353.872;106;30.00;38260.40
1740136353.922;106;30.00;38260.40
1740136353.972;118;30.00;41448.40
1740136354.022;118;30.00;41448.40
1740136354.074;104;30.00;37567.07
1740136354.124;104;30.00;37567.07
1740136354.173;104;30.00;37567.07
1740136354.224;118;30.00;41440.60
1740136354.274;118;30.00;41440.60
1740136354.324;119;30.00;41632.80
1740136354.375;106;30.00;38260.07
1740136354.424;106;30.00;38260.07
1740136354.474;110;30.00;39214.54
1740136354.525;110;30.00;39214.54
1740136354.575;113;30.00;40186.54
1740136354.625;113;30.00;40186.54
1740136354.675;113;30.00;40186.54
1740136354.725;113;30.00;40167.46
1740136354.775;113;30.00;40167.46
1740136354.825;101;30.00;36954.13
1740136354.874;101;30.00;36954.13
1740136354.925;101;30.00;36954.13
1740136354.975;108;30.00;38705.73
1740136355.026;108;30.00;38705.73
1740136355.076;100;30.00;36719.73
1740136355.126;100;30.00;36719.73
1740136355.178;102;30.00;37179.20
1740136355.228;99;30.00;36316.73
1740136355.278;99;30.00;36316.73
1740136355.429;93;30.00;34824.93
1740136355.479;100;30.00;36545.20
1740136355.529;100;30.00;36545.20
1740136355.579;102;30.00;37080.27
1740136355.629;102;30.00;37080.27
1740136355.678;117;30.00;41248.93
1740136355.729;117;30.00;41248.93
1740136355.779;105;30.00;38041.54
1740136355.830;100;30.00;36573.87
1740136355.879;100;30.00;36573.87
1740136355.930;94;30.00;34914.67
1740136355.979;94;30.00;34914.67
1740136356.029;95;30.00;35198.93
1740136356.080;107;30.00;38384.87
1740136356.130;107;30.00;38384.87
1740136356.179;113;30.00;40210.40
1740136356.230;113;30.00;40210.40
1740136356.279;113;30.00;40210.40
1740136356.330;99;30.00;36309.20
1740136356.380;99;30.00;36309.20
1740136356.431;99;30.00;36309.20
1740136356.482;109;30.00;39039.93
1740136356.531;109;30.00;39039.93
1740136356.581;112;30.00;39830.60
1740136356.631;112;30.00;39830.60
1740136356.681;102;30.00;37076.60
1740136356.731;102;30.00;37236.80
1740136356.781;102;30.00;37236.80
1740136356.831;118;30.00;41511.27
1740136356.881;118;30.00;41511.27
1740136356.931;120;30.00;41848.40
1740136356.981;104;30.00;37688.93
1740136357.031;104;30.00;37688.93
1740136357.081;95;30.00;35276.67
1740136357.131;95;30.00;35276.67
1740136357.181;102;30.00;37189.54
1740136357.231;102;30.00;37189.54
1740136357.281;103;30.00;37543.93
1740136357.331;96;30.00;35619.54
1740136357.381;96;30.00;35619.54
1740136357.431;96;30.00;35691.80
1740136357.481;96;30.00;35691.80
1740136357.532;96;30.00;35691.80
1740136357.582;120;30.00;41877.46
1740136357.632;120;30.00;41877.46
1740136357.682;119;30.00;41752.07
1740136357.732;119;30.00;41752.07
1740136357.782;119;30.00;41752.07
1740136357.833;94;30.00;35161.87
1740136357.883;94;30.00;35161.87
1740136357.933;96;30.00;35622.54
1740136357.983;94;30.00;34958.40
1740136358.032;94;30.00;34958.40
1740136358.083;120;30.00;41830.73
1740136358.134;120;30.00;41830.73
1740136358.183;101;30.00;36822.73
1740136358.233;101;30.00;36822.73
1740136358.283;103;30.00;37507.33
1740136367.303;97;30.00;35876.46
1740136367.353;99;30.00;36296.54
1740136367.403;99;30.00;36296.54
1740136367.453;95;30.00;35205.33
1740136367.503;98;30.00;35988.00
1740136367.554;98;30.00;35988.00
1740136367.603;119;30.00;41709.73
1740136367.653;119;30.00;41709.73
1740136367.704;119;30.00;41709.73
1740136367.753;105;30.00;38048.93
1740136367.804;105;30.00;38048.93
1740136367.853;95;30.00;35388.54
1740136367.904;95;30.00;35388.54
1740136367.953;96;30.00;35530.80
1740136368.003;119;30.00;41637.46
1740136368.053;119;30.00;41637.46
1740136368.104;120;30.00;41876.87
1740136368.153;120;30.00;41876.87
1740136368.203;118;30.00;41371.07
1740136368.253;118;30.00;41371.07
1740136368.303;118;30.00;41441.67
1740136368.354;115;30.00;40627.67
1740136368.404;115;30.00;40627.67
1740136368.453;98;30.00;36181.33
1740136368.504;100;30.00;36548.80
1740136368.553;100;30.00;36548.80
1740136368.603;114;30.00;40327.46
1740136368.654;114;30.00;40327.46
1740136368.703;112;30.00;39866.07
1740136368.754;112;30.00;39866.07
1740136368.803;112;30.00;39866.07
1740136368.854;114;30.00;40453.80
1740136368.904;114;30.00;40453.80
1740136368.953;103;30.00;37444.93
1740136369.004;93;30.00;34884.20
1740136369.055;93;30.00;34884.20
1740136369.104;110;30.00;39332.54
1740136369.155;110;30.00;39332.54
1740136369.205;112;30.00;39735.87
1740136369.254;112;30.00;39735.87
1740136369.304;112;30.00;39735.87
1740136369.354;109;30.00;39023.60
1740136369.404;109;30.00;39023.60
1740136369.454;108;30.00;38791.60
1740136369.504;100;30.00;36548.54
1740136369.554;100;30.00;36548.54
1740136369.605;103;30.00;37500.07
1740136369.654;103;30.00;37500.07
1740136369.704;106;30.00;38359.87
1740136369.755;106;30.00;38359.87
1740136369.805;112;30.00;39768.20
1740136369.854;112;30.00;39768.20
1740136369.905;112;30.00;39768.20
1740136369.955;94;30.00;35152.93
1740136370.005;94;30.00;35152.93
1740136370.056;110;30.00;39197.93
1740136370.105;110;30.00;39271.13
1740136370.156;110;30.00;39271.13
1740136370.207;112;30.00;39810.07
1740136370.256;112;30.00;39810.07
1740136370.306;102;30.00;37266.40
1740136370.356;102;30.00;37266.40
1740136370.407;105;30.00;37970.93
1740136370.457;119;30.00;41676.33
1740136370.507;119;30.00;41676.33
1740136370.556;96;30.00;35500.80
1740136370.606;96;30.00;35500.80
1740136370.657;96;30.00;35500.80
1740136370.706;113;30.00;39982.33
1740136370.757;113;30.00;39982.33
1740136370.806;101;30.00;37013.60
1740136370.857;101;30.00;37013.60
1740136370.906;119;30.00;41747.33
1740136370.957;117;30.00;41183.27
1740136371.007;117;30.00;41183.27
1740136371.158;113;30.00;40207.93
1740136371.208;115;30.00;40642.60
1740136371.258;115;30.00;40642.60
1740136371.309;110;30.00;39370.07
1740136371.359;110;30.00;39370.07
1740136371.408;119;30.00;41783.33
1740136371.458;119;30.00;41783.33
1740136371.509;113;30.00;40114.20
1740136371.558;113;30.00;40114.20
1740136371.608;113;30.00;40114.20
1740136371.658;104;30.00;37805.33
1740136371.708;104;30.00;37805.33
1740136371.758;104;30.00;37805.33
1740136371.808;103;30.00;37539.54
1740136371.858;103;30.00;37539.54
1740136371.908;114;30.00;40317.73
1740136371.959;109;30.00;39061.20
1740136372.009;109;30.00;39061.20
1740136372.058;111;30.00;39609.54
1740136380.917;93;30.00;34865.87
1740136380.967;98;30.00;36021.33
1740136381.017;98;30.00;36021.33
1740136381.067;106;30.00;38120.07
1740136381.117;106;30.00;38120.07
1740136381.167;103;30.00;37416.33
1740136381.217;101;30.00;36920.54
1740136381.267;101;30.00;36920.54
1740136381.317;105;30.00;37871.13
1740136381.367;105;30.00;37871.13
1740136381.569;95;30.00;35315.33
1740136381.619;95;30.00;35315.33
1740136381.668;94;30.00;34901.46
1740136381.719;94;30.00;34901.46
1740136381.768;101;30.00;36817.60
1740136381.819;113;30.00;40125.07
1740136381.868;113;30.00;40125.07
1740136381.918;99;30.00;36309.20
1740136381.968;99;30.00;36309.20
1740136382.018;106;30.00;38206.33
1740136382.069;106;30.00;38206.33
1740136382.118;106;30.00;38206.33
1740136382.168;97;30.00;35854.93
1740136382.218;97;30.00;35854.93
1740136382.268;101;30.00;37012.93
1740136382.318;101;30.00;37012.93
1740136382.369;101;30.00;37012.93
1740136382.419;106;30.00;38129.46
1740136382.469;106;30.00;38129.46
1740136382.518;104;30.00;37766.27
1740136382.568;104;30.00;37766.27
1740136382.619;104;30.00;37766.27
1740136382.668;101;30.00;37005.27
1740136382.719;101;30.00;37005.27
1740136382.769;109;30.00;39047.07
1740136382.818;109;30.00;39047.07
1740136382.869;109;30.00;39047.07
1740136382.919;106;30.00;38176.40
1740136382.969;106;30.00;38176.40
1740136383.018;120;30.00;41839.60
1740136383.069;111;30.00;39563.27
1740136383.118;111;30.00;39563.27
1740136383.269;105;30.00;38050.20
1740136383.320;94;30.00;35069.33
1740136383.369;94;30.00;35069.33
1740136383.419;117;30.00;41210.33
1740136383.469;117;30.00;41210.33
1740136383.519;99;30.00;36346.00
1740136383.570;99;30.00;36346.00
1740136383.621;103;30.00;37429.40
1740136383.670;105;30.00;38072.40
1740136383.720;105;30.00;38072.40
1740136383.771;108;30.00;38777.07
1740136383.821;105;30.00;37986.67
1740136383.871;105;30.00;37986.67
1740136383.921;116;30.00;40792.87
1740136383.971;116;30.00;40792.87
1740136384.021;119;30.00;41577.73
1740136384.071;119;30.00;41577.73
1740136384.121;119;30.00;41577.73
1740136384.171;111;30.00;39479.13
1740136384.222;111;30.00;39479.13
1740136384.271;118;30.00;41401.54
1740136384.322;110;30.00;39383.40
1740136384.372;110;30.00;39383.40
1740136384.422;119;30.00;41595.60
1740136384.472;119;30.00;41595.60
1740136384.522;116;30.00;40949.80
1740136384.572;116;30.00;40949.80
1740136384.622;97;30.00;35737.07
1740136384.671;97;30.00;35737.07
1740136384.722;97;30.00;35737.07
1740136384.772;115;30.00;40537.60
1740136384.822;115;30.00;40537.60
1740136384.872;115;30.00;40506.67
1740136384.922;104;30.00;37567.87
1740136384.973;104;30.00;37567.87
1740136385.023;119;30.00;41759.40
1740136385.073;119;30.00;41759.40
1740136385.123;114;30.00;40380.73
1740136385.173;114;30.00;40380.73
1740136385.224;116;30.00;40834.80
1740136385.274;119;30.00;41597.00
1740136385.323;119;30.00;41597.00
1740136385.373;116;30.00;40974.67
1740136385.423;116;30.00;40974.67
1740136385.473;117;30.00;41290.27
1740136385.524;96;30.00;35551.54
1740136385.573;96;30.00;35551.54
1740136574.542;200;17.71;35065.33
1740136574.592;200;17.71;35065.33
1740136574.642;200;18.20;35770.13
1740136574.743;200;18.15;35699.73
1740136574.792;200;20.87;39584.13
1740136574.842;200;20.87;39584.13
1740136574.892;200;17.87;35296.93
1740136574.942;200;20.48;39020.93
1740136574.992;200;20.48;39020.93
1740136575.042;200;18.35;35977.54
1740136575.092;200;18.79;36604.40
1740136575.142;200;18.79;36604.40
1740136575.192;200;21.41;40347.93
1740136575.243;200;21.41;40347.93
1740136575.293;200;17.65;34977.87
1740136575.342;200;17.65;34977.87
1740136575.392;200;17.84;35249.67
1740136575.443;200;20.03;38376.00
1740136575.492;200;20.03;38376.00
1740136575.542;200;21.54;40541.27
1740136575.592;200;21.54;40541.27
1740136575.643;200;19.92;38231.20
1740136575.693;200;19.05;36978.87
1740136575.743;200;19.05;36978.87
1740136575.793;200;18.35;35979.60
1740136575.843;200;18.35;35979.60
1740136575.994;200;19.87;38149.20
1740136576.044;200;18.52;36219.07
1740136576.095;200;18.52;36219.07
1740136576.145;200;21.45;40415.87
1740136576.195;200;21.45;40415.87
1740136576.245;200;18.78;36591.60
1740136576.295;200;19.70;37913.60
1740136576.345;200;19.70;37913.60
1740136576.395;200;18.87;36718.13
1740136576.445;200;18.87;36718.13
1740136576.495;200;19.87;38157.40
1740136576.545;200;19.87;38157.40
1740136576.595;200;18.34;35962.54
1740136576.645;200;20.49;39034.07
1740136576.695;200;20.49;39034.07
1740136576.745;200;21.18;40019.40
1740136576.796;200;21.18;40019.40
1740136576.846;200;21.18;40019.40
1740136576.896;200;18.55;36260.40
1740136576.946;200;18.55;36260.40
1740136576.996;200;21.35;40266.40
1740136577.046;200;21.35;40266.40
1740136577.095;200;18.64;36393.80
1740136577.146;200;18.64;36393.80
1740136577.196;200;18.64;36393.80
1740136577.246;200;17.59;34896.67
1740136577.296;200;17.59;34896.67
1740136577.347;200;20.29;38754.60
1740136577.396;200;20.29;38754.60
1740136577.446;200;20.03;38386.07
1740136577.497;200;20.34;38826.60
1740136577.546;200;20.34;38826.60
1740136577.596;200;17.79;35188.80
1740136577.647;200;17.79;35188.80
1740136577.696;200;18.39;36033.60
1740136577.747;200;18.39;36033.60
1740136577.797;200;18.47;36151.87
1740136577.847;200;19.01;36918.46
1740136577.898;200;19.01;36918.46
1740136577.948;200;20.48;39028.33
1740136577.998;200;20.48;39028.33
1740136578.048;200;20.50;39055.73
1740136578.097;200;20.61;39212.27
1740136578.147;200;20.61;39212.27
1740136578.197;200;21.22;40083.40
1740136578.248;200;21.22;40083.40
1740136578.297;200;18.10;35627.73
1740136578.348;200;18.10;35627.73
1740136578.398;200;20.57;39149.93
1740136578.448;200;18.23;35809.60
1740136578.497;200;18.23;35809.60
1740136578.548;200;21.49;40461.67
1740136578.599;200;21.49;40461.67
1740136578.649;200;18.56;36281.73
1740136578.698;200;18.56;36281.73
1740136578.749;200;18.56;36281.73
1740136578.799;200;21.63;40666.13
1740136578.849;200;21.63;40666.13
1740136578.899;200;19.81;38065.54
1740136578.949;200;19.81;38065.54
1740136578.999;200;19.81;38065.54
1740136579.049;200;20.45;38988.13
1740136579.099;200;20.45;38988.13
1740136587.835;200;17.84;35257.13
1740136587.886;200;17.84;35257.13
1740136587.936;200;18.81;36644.80
1740136587.985;200;18.81;36644.80
1740136588.036;200;19.57;37720.00
1740136588.186;200;17.92;35363.40
1740136588.235;200;17.92;35363.40
1740136588.285;200;19.41;37490.40
1740136588.336;200;19.93;38241.93
1740136588.386;200;19.93;38241.93
1740136588.435;200;22.51;41916.87
1740136588.485;200;22.51;41916.87
1740136588.536;200;19.55;37689.93
1740136588.585;200;19.55;37689.93
1740136588.636;200;17.58;34887.07
1740136588.686;200;17.58;34887.07
1740136588.735;200;17.58;34887.07
1740136588.786;200;22.09;41323.60
1740136588.835;200;22.09;41323.60
1740136588.886;200;22.09;41323.60
1740136588.936;200;19.49;37606.00
1740136588.986;200;19.49;37606.00
1740136589.036;200;21.06;39853.46
1740136589.086;200;21.06;39853.46
1740136589.135;200;17.96;35422.00
1740136589.185;200;19.10;37050.67
1740136589.236;200;19.10;37050.67
1740136589.286;200;19.97;38298.00
1740136589.335;200;19.97;38298.00
1740136589.385;200;18.36;35990.27
1740136589.436;200;20.14;38535.60
1740136589.485;200;20.14;38535.60
1740136589.536;200;22.34;41681.00
1740136589.586;200;22.34;41681.00
1740136589.636;200;21.77;40865.40
1740136589.685;200;21.77;40865.40
1740136589.736;200;18.30;35907.20
1740136589.785;200;18.38;36020.00
1740136589.835;200;18.38;36020.00
1740136589.885;200;18.20;35768.93
1740136589.935;200;18.20;35768.93
1740136589.985;200;18.20;35768.93
1740136590.036;200;20.54;39104.73
1740136590.085;200;20.54;39104.73
1740136590.135;200;19.41;37491.20
1740136590.185;200;19.41;37491.20
1740136590.235;200;20.53;39095.20
1740136590.285;200;20.62;39230.46
1740136590.336;200;20.62;39230.46
1740136590.385;200;18.82;36653.93
1740136590.435;200;18.82;36653.93
1740136590.535;200;19.87;38150.46
1740136590.585;200;19.87;38150.46
1740136590.635;200;20.64;39252.60
1740136590.685;200;20.64;39252.60
1740136590.735;200;20.64;39257.13
1740136590.785;200;20.64;39257.13
1740136590.836;200;22.34;41681.46
1740136590.885;200;22.34;41681.46
1740136590.935;200;22.34;41681.46
1740136590.985;200;20.99;39755.00
1740136591.035;200;20.99;39755.00
1740136591.085;200;22.34;41681.73
1740136591.135;200;22.34;41681.73
1740136591.185;200;21.35;40265.87
1740136591.236;200;19.33;37379.20
1740136591.285;200;19.33;37379.20
1740136591.335;200;18.71;36501.73
1740136591.386;200;18.71;36501.73
1740136591.435;200;18.16;35711.73
1740136591.485;200;18.03;35521.13
1740136591.535;200;18.03;35521.13
1740136591.585;200;19.26;37286.67
1740136591.635;200;19.26;37286.67
1740136591.685;200;18.12;35646.93
1740136591.736;200;19.82;38085.80
1740136591.785;200;19.82;38085.80
1740136591.836;200;22.32;41657.93
1740136591.886;200;22.32;41657.93
1740136591.935;200;22.40;41759.20
1740136591.986;200;22.40;41759.20
1740136592.035;200;22.40;41759.20
1740136592.086;200;20.68;39311.67
1740136592.135;200;20.68;39311.67
1740136592.185;200;20.77;39433.40
1740136592.235;200;20.82;39502.73
1740136592.285;200;20.82;39502.73
1740136592.335;200;22.12;41372.46
1740136592.385;200;22.12;41372.46
1740136600.918;200;17.61;34918.27
1740136600.968;200;18.27;35874.33
1740136601.017;200;18.27;35874.33
1740136601.067;200;21.47;40436.00
1740136601.118;200;22.09;41328.07
1740136601.168;200;20.22;38647.54
1740136601.219;200;21.40;40330.87
1740136601.269;200;21.40;40330.87
1740136601.319;200;21.49;40465.40
1740136601.369;200;21.49;40465.40
1740136601.418;200;21.05;39842.87
1740136601.468;200;21.05;39842.87
1740136601.519;200;20.00;38344.07
1740136601.569;200;20.00;38344.07
1740136601.619;200;20.71;39359.20
1740136601.669;200;20.71;39359.20
1740136601.719;200;19.77;38010.20
1740136601.769;200;19.77;38010.20
1740136601.819;200;22.32;41656.40
1740136601.869;200;22.32;41656.40
1740136601.918;200;18.02;35505.87
1740136601.969;200;17.64;34964.93
1740136602.020;200;17.64;34964.93
1740136602.071;200;21.42;40371.67
1740136602.120;200;21.42;40371.67
1740136602.170;200;20.40;38908.33
1740136602.220;200;20.40;38908.33
1740136602.320;200;18.11;35638.27
1740136602.371;200;20.01;38355.54
1740136602.420;200;19.79;38034.20
1740136602.471;200;19.79;38034.20
1740136602.520;200;22.54;41971.33
1740136602.570;200;22.54;41971.33
1740136602.621;200;19.63;37813.00
1740136602.671;200;19.63;37813.00
1740136602.720;200;20.87;39586.80
1740136602.770;200;20.87;39586.80
1740136602.821;200;20.43;38950.60
1740136602.871;200;20.43;38950.60
1740136602.920;200;22.16;41420.07
1740136602.971;200;22.16;41420.07
1740136603.020;200;22.43;41803.67
1740136603.071;200;21.83;40958.67
1740136603.121;200;21.44;40392.87
1740136603.171;200;21.27;40152.20
1740136603.221;200;21.27;40152.20
1740136603.271;200;20.51;39063.73
1740136603.322;200;20.51;39063.73
1740136603.372;200;20.39;38890.07
1740136603.422;200;20.39;38890.07
1740136603.471;200;21.17;40011.27
1740136603.522;200;21.17;40011.27
1740136603.572;200;20.97;39718.87
1740136603.622;200;20.97;39718.87
1740136603.672;200;18.03;35520.46
1740136603.722;200;19.12;37075.33
1740136603.772;200;20.51;39060.87
1740136603.822;200;21.09;39900.20
1740136603.872;200;21.09;39900.20
1740136604.024;200;18.44;36107.20
1740136604.075;200;18.44;36107.20
1740136604.125;200;21.35;40259.60
1740136604.174;200;21.35;40259.60
1740136604.225;200;18.56;36287.40
1740136604.275;200;18.56;36287.40
1740136604.325;200;18.80;36624.46
1740136604.375;200;18.80;36624.46
1740136604.425;200;20.68;39304.80
1740136604.476;200;20.68;39304.80
1740136604.526;200;22.45;41831.00
1740136604.576;200;22.45;41831.00
1740136604.626;200;17.98;35459.33
1740136604.676;200;20.91;39640.80
1740136604.725;200;20.91;39640.80
1740136604.776;200;18.84;36675.87
1740136604.825;200;18.84;36675.87
1740136604.876;200;19.49;37605.54
1740136604.926;200;19.78;38023.93
1740136604.976;200;19.06;37001.33
1740136605.026;200;20.56;39143.87
1740136605.076;200;20.56;39143.87
