UnixTimestamp;Microseconds;MilliAmpere;BaseValue
1726062061.094;500;1.00
1726062061.143;500;1.00
1726062061.193;500;1.00
1726062061.243;500;1.00
1726062061.293;500;1.00
1726062061.343;500;1.00
1726062061.393;500;1.00
1726062061.443;500;1.00
1726062061.493;500;1.00
1726062061.544;500;1.00
1726062061.593;500;1.00
1726062061.643;500;1.00
1726062061.694;500;1.00
1726062061.743;500;1.00
1726062061.794;500;1.00
1726062061.844;500;1.00
1726062061.894;500;1.00
1726062061.944;500;1.00
1726062061.993;500;1.00
1726062062.043;500;1.00
1726062062.094;500;1.00
1726062065.393;1;40.00
1726062065.443;1;40.00
1726062065.493;1;40.00
1726062065.543;1;40.00
1726062065.594;1;40.00
1726062065.644;1;40.00
1726062065.694;1;40.00
1726062065.743;1;40.00
1726062065.794;1;40.00
1726062065.844;1;40.00
1726062065.893;1;40.00
1726062065.943;1;40.00
1726062065.993;1;40.00
1726062066.043;1;40.00
1726062066.094;1;40.00
1726062066.144;1;40.00
1726062066.193;1;40.00
1726062097.816;198;30.00;36024.27
1726062097.865;198;30.00;36024.27
1726062097.915;198;30.00;36024.27
1726062097.966;201;30.00;36610.40
1726062098.017;211;30.00;38562.93
1726062098.066;195;30.00;35509.87
1726062098.116;195;30.00;35509.87
1726062098.168;225;30.00;41164.67
1726062098.218;245;30.00;44906.93
1726062098.268;245;30.00;44906.93
1726062098.318;245;30.00;44906.93
1726062098.368;248;30.00;45377.60
1726062098.418;247;30.00;45285.46
1726062098.468;247;30.00;45285.46
1726062098.519;247;30.00;45285.46
1726062098.568;225;30.00;41122.40
1726062098.618;225;30.00;41122.40
1726062098.669;225;30.00;41122.40
1726062098.718;225;30.00;41122.40
1726062098.769;217;30.00;39523.07
1726062098.818;218;30.00;39768.54
1726062098.869;218;30.00;39768.54
1726062098.918;218;30.00;39768.54
1726062098.970;206;30.00;37500.40
1726062099.019;243;30.00;44456.13
1726062099.069;243;30.00;44456.13
1726062099.119;243;30.00;44456.13
1726062099.170;247;30.00;45249.73
1726062099.219;247;30.00;45291.87
1726062099.269;227;30.00;41428.00
1726062099.320;227;30.00;41428.00
1726062099.370;227;30.00;41469.87
1726062099.420;242;30.00;44338.54
1726062099.470;237;30.00;43325.93
1726062099.520;237;30.00;43325.93
1726062099.571;237;30.00;43325.93
1726062099.621;207;30.00;37764.40
1726062099.671;200;30.00;36462.40
1726062099.722;200;30.00;36462.40
1726062099.772;204;30.00;37217.20
1726062099.822;224;30.00;40864.13
1726062099.872;242;30.00;44326.40
1726062099.923;242;30.00;44326.40
1726062099.973;237;30.00;43425.46
1726062100.023;219;30.00;40000.87
1726062100.073;231;30.00;42176.40
1726062100.123;231;30.00;42176.40
1726062100.173;250;30.00;45730.00
1726062100.223;218;30.00;39763.33
1726062100.273;252;30.00;46164.67
1726062100.323;252;30.00;46164.67
1726062100.374;238;30.00;43592.27
1726062100.423;223;30.00;40690.54
1726062100.474;223;30.00;40690.54
1726062100.524;223;30.00;40690.54
1726062100.574;249;30.00;45593.27
1726062100.624;206;30.00;37464.13
1726062100.675;211;30.00;38458.87
1726062100.724;211;30.00;38458.87
1726062100.774;246;30.00;45063.07
1726062100.824;237;30.00;43365.33
1726062100.875;231;30.00;42268.73
1726062100.924;231;30.00;42268.73
1726062100.974;202;30.00;36764.27
1726062101.024;199;30.00;36156.13
1726062101.075;199;30.00;36156.13
1726062101.124;199;30.00;36156.13
1726062101.174;242;30.00;44265.73
1726062101.225;227;30.00;41565.46
1726062101.275;227;30.00;41565.46
1726062101.324;227;30.00;41565.46
1726062101.375;198;30.00;35982.67
1726062101.425;197;30.00;35825.87
1726062101.475;197;30.00;35825.87
1726062101.525;197;30.00;35825.87
1726062101.574;238;30.00;43611.07
1726062101.625;231;30.00;42204.40
1726062101.675;231;30.00;42204.40
1726062101.725;231;30.00;42204.40
1726062101.775;196;30.00;35602.00
1726062101.825;206;30.00;37557.33
1726062101.875;206;30.00;37557.33
1726062101.925;206;30.00;37557.33
1726062101.974;238;30.00;43460.00
1726062102.025;204;30.00;37215.33
1726062102.075;204;30.00;37215.33
1726062102.125;204;30.00;37215.33
1726062102.175;223;30.00;40779.73
1726062102.225;205;30.00;37334.00
1726062102.275;205;30.00;37334.00
1726062102.325;205;30.00;37334.00
1726062102.376;204;30.00;37222.27
1726062102.426;247;30.00;45203.73
1726062102.476;247;30.00;45203.73
1726062102.526;247;30.00;45203.73
1726062102.576;239;30.00;43716.20
1726062102.626;236;30.00;43129.40
1726062102.676;236;30.00;43129.40
1726062102.725;236;30.00;43129.40
1726062102.776;245;30.00;44783.00
1726062102.826;241;30.00;44079.20
1726062102.876;241;30.00;44079.20
1726062102.926;241;30.00;44079.20
1726062102.976;203;30.00;37006.67
1726062114.340;203;30.00;37063.87
1726062114.391;203;30.00;37063.87
1726062114.441;203;30.00;37063.87
1726062114.491;205;30.00;37451.20
1726062114.541;220;30.00;40148.00
1726062114.590;220;30.00;40148.00
1726062114.641;220;30.00;40148.00
1726062114.691;243;30.00;44464.87
1726062114.741;242;30.00;44305.27
1726062114.792;242;30.00;44305.27
1726062114.842;242;30.00;44305.27
1726062114.891;203;30.00;36990.93
1726062114.942;203;30.00;36990.93
1726062114.992;203;30.00;36990.93
1726062115.042;213;30.00;38940.54
1726062115.092;234;30.00;42745.07
1726062115.142;234;30.00;42745.07
1726062115.192;234;30.00;42745.07
1726062115.243;203;30.00;36946.27
1726062115.293;240;30.00;43833.07
1726062115.346;240;30.00;43833.07
1726062115.394;240;30.00;43833.07
1726062115.444;237;30.00;43335.33
1726062115.495;219;30.00;39914.13
1726062115.544;219;30.00;39914.13
1726062115.595;200;30.00;36508.27
1726062115.645;215;30.00;39182.46
1726062115.694;203;30.00;36963.33
1726062115.744;203;30.00;36963.33
1726062115.794;203;30.00;36963.33
1726062115.844;222;30.00;40629.46
1726062115.895;217;30.00;39660.80
1726062115.944;217;30.00;39660.80
1726062115.994;221;30.00;40328.40
1726062116.044;218;30.00;39742.13
1726062116.094;206;30.00;37525.46
1726062116.144;206;30.00;37525.46
1726062116.194;223;30.00;40676.40
1726062116.244;201;30.00;36682.80
1726062116.294;201;30.00;36682.80
1726062116.344;201;30.00;36682.80
1726062116.394;237;30.00;43308.54
1726062116.444;234;30.00;42734.93
1726062116.494;234;30.00;42734.93
1726062116.544;234;30.00;42734.93
1726062116.595;197;30.00;35949.07
1726062116.645;197;30.00;35949.07
1726062116.694;197;30.00;35949.07
1726062116.744;199;30.00;36158.13
1726062116.794;209;30.00;38084.73
1726062116.845;208;30.00;37924.46
1726062116.895;208;30.00;37924.46
1726062116.944;208;30.00;37924.46
1726062116.994;242;30.00;44335.46
1726062117.045;222;30.00;40525.87
1726062117.094;222;30.00;40525.87
1726062117.144;222;30.00;40525.87
1726062117.195;225;30.00;41063.73
1726062117.244;218;30.00;39878.80
1726062117.294;218;30.00;39878.80
1726062117.345;218;30.00;39878.80
1726062117.394;202;30.00;36772.54
1726062117.447;216;30.00;39377.33
1726062117.495;216;30.00;39388.93
1726062117.544;216;30.00;39388.93
1726062117.594;229;30.00;41839.60
1726062117.644;229;30.00;41773.33
1726062117.695;198;30.00;36047.00
1726062117.745;198;30.00;36047.00
1726062117.794;198;30.00;36047.00
1726062117.844;198;30.00;36031.46
1726062117.894;199;30.00;36298.00
1726062117.944;199;30.00;36298.00
1726062117.994;199;30.00;36298.00
1726062118.045;198;30.00;36088.13
1726062118.095;204;30.00;37138.67
1726062118.145;204;30.00;37138.67
1726062118.195;204;30.00;37138.67
1726062118.245;228;30.00;41658.93
1726062118.295;201;30.00;36535.73
1726062118.345;201;30.00;36535.73
1726062118.395;201;30.00;36535.73
1726062118.445;225;30.00;41111.07
1726062118.495;230;30.00;42045.60
1726062118.545;230;30.00;42045.60
1726062118.596;230;30.00;42045.60
1726062118.645;223;30.00;40803.87
1726062118.696;218;30.00;39848.54
1726062118.746;218;30.00;39848.54
1726062118.795;216;30.00;39475.33
1726062118.846;196;30.00;35691.87
1726062118.896;196;30.00;35691.87
1726062118.947;196;30.00;35691.87
1726062118.996;239;30.00;43805.00
1726062119.046;217;30.00;39532.40
1726062119.096;217;30.00;39532.40
1726062119.147;217;30.00;39532.40
1726062119.196;250;30.00;45784.40
1726062131.348;197;30.00;35772.27
1726062131.397;195;30.00;35457.33
1726062131.448;195;30.00;35457.33
1726062131.498;195;30.00;35551.33
1726062131.548;195;30.00;35429.20
1726062131.597;241;30.00;44091.33
1726062131.648;241;30.00;44091.33
1726062131.697;236;30.00;43126.00
1726062131.748;233;30.00;42538.67
1726062131.797;230;30.00;42055.46
1726062131.848;230;30.00;42055.46
1726062131.898;209;30.00;38132.80
1726062131.947;224;30.00;40978.80
1726062131.998;229;30.00;41926.80
1726062132.048;229;30.00;41926.80
1726062132.098;229;30.00;41926.80
1726062132.148;217;30.00;39654.67
1726062132.198;210;30.00;38253.60
1726062132.248;210;30.00;38253.60
1726062132.298;210;30.00;38253.60
1726062132.348;232;30.00;42344.00
1726062132.398;228;30.00;41617.33
1726062132.449;228;30.00;41617.33
1726062132.499;233;30.00;42641.60
1726062132.549;214;30.00;39124.27
1726062132.599;209;30.00;38030.33
1726062132.649;209;30.00;38030.33
1726062132.700;209;30.00;38030.33
1726062132.750;238;30.00;43456.40
1726062132.800;206;30.00;37538.54
1726062132.850;206;30.00;37538.54
1726062132.901;206;30.00;37538.54
1726062132.951;216;30.00;39327.87
1726062133.001;204;30.00;37126.00
1726062133.052;204;30.00;37126.00
1726062133.101;204;30.00;37126.00
1726062133.151;243;30.00;44447.20
1726062133.201;200;30.00;36422.80
1726062133.251;200;30.00;36422.80
1726062133.302;200;30.00;36422.80
1726062133.352;204;30.00;37164.93
1726062133.403;240;30.00;43873.60
1726062133.453;240;30.00;43873.60
1726062133.503;240;30.00;43873.60
1726062133.553;225;30.00;41028.00
1726062133.603;206;30.00;37460.27
1726062133.653;206;30.00;37460.27
1726062133.704;206;30.00;37460.27
1726062133.753;214;30.00;39112.13
1726062133.803;247;30.00;45216.13
1726062133.853;247;30.00;45216.13
1726062133.904;247;30.00;45216.13
1726062133.954;245;30.00;44840.87
1726062134.004;211;30.00;38433.73
1726062134.054;211;30.00;38433.73
1726062134.104;211;30.00;38433.73
1726062134.154;241;30.00;44172.80
1726062134.204;204;30.00;37256.93
1726062134.254;204;30.00;37256.93
1726062134.305;204;30.00;37256.93
1726062134.354;244;30.00;44658.07
1726062134.405;219;30.00;39902.00
1726062134.455;219;30.00;39902.00
1726062134.505;212;30.00;38656.93
1726062134.555;227;30.00;41476.13
1726062134.605;203;30.00;36907.33
1726062134.655;203;30.00;36907.33
1726062134.705;204;30.00;37129.73
1726062134.755;203;30.00;36981.60
1726062134.805;209;30.00;38026.67
1726062134.855;209;30.00;38026.67
1726062134.904;209;30.00;38026.67
1726062134.955;209;30.00;38026.67
1726062135.005;216;30.00;39439.46
1726062135.055;216;30.00;39439.46
1726062135.104;216;30.00;39439.46
1726062135.155;232;30.00;42334.27
1726062135.205;240;30.00;43940.87
1726062135.255;240;30.00;43940.87
1726062135.305;240;30.00;43940.87
1726062135.356;205;30.00;37365.87
1726062135.405;200;30.00;36455.60
1726062135.456;200;30.00;36455.60
1726062135.505;200;30.00;36455.60
1726062135.556;208;30.00;37836.13
1726062135.606;247;30.00;45295.46
1726062135.656;247;30.00;45295.46
1726062135.707;247;30.00;45295.46
1726062135.757;218;30.00;39859.13
1726062135.807;200;30.00;36470.40
1726062135.857;200;30.00;36470.40
1726062135.908;200;30.00;36470.40
1726062135.957;198;30.00;36107.46
1726062136.008;242;30.00;44350.00
1726062136.058;242;30.00;44350.00
1726062136.109;242;30.00;44350.00
1726062136.158;236;30.00;43167.07
1726062136.208;242;30.00;44216.07
1726062136.259;241;30.00;44142.40
1726062136.309;241;30.00;44142.40
1726062136.358;241;30.00;44142.40
1726062136.408;216;30.00;39487.33
1726062136.458;240;30.00;43910.54
1726062136.509;201;30.00;36693.54
1726062136.559;201;30.00;36693.54
1726062136.609;201;30.00;36693.54
1726062136.660;245;30.00;44857.60
1726062186.274;192;40.00;34997.20
1726062186.473;193;40.00;35199.46
1726062186.573;217;40.00;39700.80
1726062186.624;217;40.00;39700.80
1726062186.674;216;40.00;39334.80
1726062186.723;204;40.00;37241.87
1726062186.773;204;40.00;37144.93
1726062186.824;204;40.00;37144.93
1726062186.873;221;40.00;40449.00
1726062186.924;200;40.00;36358.40
1726062186.974;200;40.00;36358.40
1726062187.024;200;40.00;36358.40
1726062187.124;213;40.00;38851.87
1726062187.174;213;40.00;38851.87
1726062187.224;213;40.00;38851.87
1726062187.274;205;40.00;37421.20
1726062187.324;221;40.00;40320.54
1726062187.374;221;40.00;40320.54
1726062187.424;221;40.00;40320.54
1726062187.474;219;40.00;40034.93
1726062187.524;222;40.00;40613.33
1726062187.574;222;40.00;40613.33
1726062187.624;222;40.00;40613.33
1726062187.874;207;40.00;37765.60
1726062187.924;193;40.00;35107.87
1726062187.974;193;40.00;35107.87
1726062188.024;193;40.00;35107.87
1726062188.074;244;40.00;44722.33
1726062188.374;204;40.00;37155.20
1726062188.424;204;40.00;37155.20
1726062188.474;204;40.00;37155.20
1726062188.524;213;40.00;38905.20
1726062188.573;205;40.00;37438.20
1726062188.624;205;40.00;37438.20
1726062188.674;225;40.00;41146.80
1726062188.724;227;40.00;41565.67
1726062188.774;227;40.00;41565.67
1726062188.824;227;40.00;41565.67
1726062188.874;194;40.00;35325.87
1726062188.924;216;40.00;39398.07
1726062188.974;216;40.00;39398.07
1726062189.024;216;40.00;39398.07
1726062189.124;238;40.00;43455.20
1726062189.175;238;40.00;43455.20
1726062189.224;238;40.00;43455.20
1726062189.325;216;40.00;39505.33
1726062189.376;250;40.00;45719.27
1726062189.426;250;40.00;45719.27
1726062189.476;250;40.00;45719.27
1726062189.526;202;40.00;36725.20
1726062189.576;202;40.00;36714.67
1726062189.626;202;40.00;36714.67
1726062189.677;202;40.00;36714.67
1726062189.727;236;40.00;43126.87
1726062189.777;246;40.00;44995.46
1726062189.827;246;40.00;44995.46
1726062189.877;238;40.00;43576.33
1726062189.927;228;40.00;41722.80
1726062189.977;229;40.00;41878.27
1726062190.027;229;40.00;41878.27
1726062190.078;208;40.00;37990.40
1726062190.128;236;40.00;43160.40
1726062190.330;216;40.00;39437.13
1726062190.380;199;40.00;36325.33
1726062190.430;199;40.00;36325.33
1726062190.480;199;40.00;36325.33
1726062190.530;199;40.00;36325.33
1726062190.580;235;40.00;43068.27
1726062190.681;206;40.00;37635.20
1726062190.731;206;40.00;37635.20
1726062190.780;206;40.00;37635.20
1726062190.830;213;40.00;38788.40
1726062190.881;206;40.00;37570.13
1726062190.931;206;40.00;37570.13
1726062190.981;206;40.00;37570.13
1726062191.080;197;40.00;35937.07
1726062191.131;197;40.00;35937.07
1726062191.182;197;40.00;35937.07
1726062191.232;208;40.00;38004.13
1726062191.433;243;40.00;44541.60
1726062191.683;197;40.00;35899.20
1726062203.890;206;40.00;37603.87
1726062203.939;194;40.00;35300.00
1726062203.989;194;40.00;35300.00
1726062204.038;194;40.00;35300.00
1726062204.088;206;40.00;37573.73
1726062204.189;220;40.00;40113.46
1726062204.238;220;40.00;40113.46
1726062204.290;243;40.00;44408.60
1726062204.340;198;40.00;36088.46
1726062204.390;193;40.00;35121.07
1726062204.440;193;40.00;35121.07
1726062204.490;193;40.00;35121.07
1726062204.539;197;40.00;35819.73
1726062204.590;237;40.00;43450.80
1726062204.640;237;40.00;43450.80
1726062204.689;237;40.00;43450.80
1726062204.740;241;40.00;44088.40
1726062204.789;251;40.00;45906.33
1726062204.839;251;40.00;45906.33
1726062204.890;225;40.00;41123.07
1726062204.940;202;40.00;36829.20
1726062204.990;193;40.00;35164.13
1726062205.040;193;40.00;35164.13
1726062205.090;193;40.00;35164.13
1726062205.140;222;40.00;40474.67
1726062205.190;216;40.00;39354.13
1726062205.241;216;40.00;39354.13
1726062205.290;231;40.00;42310.80
1726062205.341;235;40.00;42984.54
1726062205.391;194;40.00;35233.33
1726062205.440;194;40.00;35233.33
1726062205.492;194;40.00;35233.33
1726062205.592;249;40.00;45541.33
1726062205.641;249;40.00;45541.33
1726062205.692;249;40.00;45541.33
1726062205.741;202;40.00;36798.67
1726062205.792;240;40.00;43961.60
1726062205.841;240;40.00;43961.60
1726062205.891;240;40.00;43961.60
1726062205.992;233;40.00;42594.27
1726062206.041;233;40.00;42594.27
1726062206.092;233;40.00;42594.27
1726062206.141;212;40.00;38645.67
1726062206.192;215;40.00;39282.67
1726062206.241;215;40.00;39282.67
1726062206.291;215;40.00;39282.67
1726062206.341;196;40.00;35638.80
1726062206.393;247;40.00;45196.40
1726062206.443;247;40.00;45196.40
1726062206.494;247;40.00;45196.40
1726062206.543;245;40.00;44778.27
1726062206.594;212;40.00;38634.40
1726062206.643;212;40.00;38634.40
1726062206.694;212;40.00;38634.40
1726062206.793;236;40.00;43215.27
1726062206.844;236;40.00;43215.27
1726062206.893;236;40.00;43215.27
1726062207.194;208;40.00;37853.27
1726062207.243;208;40.00;37853.27
1726062207.294;206;40.00;37510.67
1726062207.344;201;40.00;36649.07
1726062207.394;201;40.00;36649.07
1726062207.443;201;40.00;36649.07
1726062207.493;213;40.00;38947.80
1726062207.544;237;40.00;43279.73
1726062207.593;237;40.00;43279.73
1726062207.644;237;40.00;43279.73
1726062207.744;195;40.00;35501.73
1726062207.793;195;40.00;35501.73
1726062207.844;195;40.00;35501.73
1726062207.894;196;40.00;35754.80
1726062208.093;238;40.00;43578.60
1726062208.144;245;40.00;44856.67
1726062208.194;207;40.00;37796.80
1726062208.243;207;40.00;37796.80
1726062208.294;207;40.00;37796.80
1726062208.343;207;40.00;37796.80
1726062208.393;244;40.00;44753.87
1726062208.493;203;40.00;36929.46
1726062208.544;203;40.00;36929.46
1726062208.594;203;40.00;36942.27
1726062208.644;213;40.00;38767.87
1726062208.894;208;40.00;37875.33
1726062208.945;208;40.00;37875.33
1726062208.994;208;40.00;37875.33
1726062209.044;199;40.00;36299.60
1726062209.095;216;40.00;39436.20
1726062209.145;216;40.00;39436.20
1726062209.195;216;40.00;39436.20
1726062221.798;192;40.00;34998.80
1726062221.849;192;40.00;34998.80
1726062221.899;192;40.00;34998.80
1726062221.950;206;40.00;37513.60
1726062221.999;225;40.00;41032.73
1726062222.050;225;40.00;41032.73
1726062222.101;225;40.00;41032.73
1726062222.150;209;40.00;38037.87
1726062222.200;229;40.00;41892.00
1726062222.250;229;40.00;41892.00
1726062222.300;229;40.00;41892.00
1726062222.351;214;40.00;39084.93
1726062222.401;240;40.00;43863.46
1726062222.451;240;40.00;43863.46
1726062222.501;240;40.00;43863.46
1726062222.551;195;40.00;35480.80
1726062222.601;244;40.00;44627.33
1726062222.651;244;40.00;44627.33
1726062222.701;244;40.00;44627.33
1726062222.951;210;40.00;38289.93
1726062223.001;194;40.00;35206.20
1726062223.052;194;40.00;35206.20
1726062223.101;194;40.00;35206.20
1726062223.202;207;40.00;37729.00
1726062223.252;207;40.00;37729.00
1726062223.301;207;40.00;37729.00
1726062223.352;204;40.00;37226.54
1726062223.501;195;40.00;35478.00
1726062223.702;210;40.00;38360.00
1726062223.752;215;40.00;39265.20
1726062223.802;215;40.00;39265.20
1726062223.852;215;40.00;39265.20
1726062223.903;224;40.00;40980.54
1726062223.953;195;40.00;35571.60
1726062224.003;243;40.00;44436.27
1726062224.053;243;40.00;44436.27
1726062224.104;243;40.00;44436.27
1726062224.153;196;40.00;35639.93
1726062224.204;218;40.00;39813.46
1726062224.254;218;40.00;39813.46
1726062224.304;218;40.00;39813.46
1726062224.354;219;40.00;40067.87
1726062224.404;210;40.00;38279.60
1726062224.454;210;40.00;38279.60
1726062224.504;231;40.00;42183.13
1726062224.554;194;40.00;35275.07
1726062224.604;194;40.00;35275.07
1726062224.654;194;40.00;35275.07
1726062224.704;198;40.00;36037.07
1726062224.754;215;40.00;39164.67
1726062224.955;193;40.00;35132.00
1726062225.155;215;40.00;39256.27
1726062225.355;216;40.00;39369.07
1726062225.405;231;40.00;42161.00
1726062225.455;231;40.00;42161.00
1726062225.505;231;40.00;42161.00
1726062225.555;228;40.00;41616.13
1726062225.605;242;40.00;44341.73
1726062225.655;242;40.00;44341.73
1726062225.706;228;40.00;41661.33
1726062225.906;203;40.00;36986.93
1726062226.006;208;40.00;37881.73
1726062226.057;208;40.00;37881.73
1726062226.107;212;40.00;38664.93
1726062226.358;196;40.00;35650.40
1726062226.408;229;40.00;41926.40
1726062226.458;229;40.00;41926.40
1726062226.508;229;40.00;41926.40
1726062226.558;209;40.00;38032.40
1726062226.608;197;40.00;35891.60
1726062226.657;197;40.00;35891.60
1726062226.707;197;40.00;35891.60
1726062226.758;197;40.00;35891.60
1726062226.808;243;40.00;44442.07
1726062226.858;250;40.00;45832.40
1726062226.908;250;40.00;45832.40
1726062226.958;250;40.00;45832.40
1726062227.058;207;40.00;37725.60
1726062358.249;193;10.00;35122.40
1726062358.299;193;10.00;35122.40
1726062358.349;193;10.00;35122.40
1726062358.449;238;10.00;43567.46
1726062358.499;238;10.00;43567.46
1726062358.550;238;10.00;43567.46
1726062358.599;226;10.00;41252.13
1726062358.650;240;10.00;43975.40
1726062358.700;240;10.00;43975.40
1726062358.751;240;10.00;43975.40
1726062358.801;233;10.00;42556.60
1726062358.851;215;10.00;39250.40
1726062358.901;215;10.00;39250.40
1726062358.951;215;10.00;39250.40
1726062359.001;218;10.00;39768.80
1726062359.051;223;10.00;40818.40
1726062359.101;223;10.00;40818.40
1726062359.151;223;10.00;40818.40
1726062359.201;197;10.00;35821.46
1726062359.252;214;10.00;39108.00
1726062359.303;214;10.00;39108.00
1726062359.353;214;10.00;39108.00
1726062359.403;214;10.00;39108.00
1726062359.453;242;10.00;44334.80
1726062359.503;242;10.00;44334.80
1726062359.553;242;10.00;44334.80
1726062359.603;233;10.00;42650.46
1726062359.653;220;10.00;40264.27
1726062359.704;220;10.00;40264.27
1726062359.754;220;10.00;40264.27
1726062359.804;232;10.00;42372.93
1726062359.854;204;10.00;37241.13
1726062359.904;204;10.00;37241.13
1726062359.954;204;10.00;37241.13
1726062360.004;219;10.00;40063.87
1726062360.054;238;10.00;43613.20
1726062360.104;238;10.00;43613.20
1726062360.154;238;10.00;43613.20
1726062360.204;198;10.00;36004.80
1726062360.254;210;10.00;38332.07
1726062360.304;210;10.00;38332.07
1726062360.354;210;10.00;38332.07
1726062360.404;206;10.00;37457.20
1726062360.454;211;10.00;38445.07
1726062360.504;211;10.00;38445.07
1726062360.554;211;10.00;38445.07
1726062360.604;228;10.00;41612.40
1726062360.654;232;10.00;42506.13
1726062360.704;232;10.00;42431.87
1726062360.754;232;10.00;42431.87
1726062360.804;211;10.00;38422.93
1726062360.854;215;10.00;39179.87
1726062360.904;215;10.00;39179.87
1726062360.955;215;10.00;39179.87
1726062361.004;224;10.00;40970.40
1726062361.054;224;10.00;40975.80
1726062361.104;224;10.00;40975.80
1726062361.154;224;10.00;40975.80
1726062361.204;214;10.00;39119.46
1726062361.254;244;10.00;44716.80
1726062361.304;244;10.00;44716.80
1726062361.354;244;10.00;44716.80
1726062361.405;235;10.00;42943.46
1726062361.455;208;10.00;38006.80
1726062361.505;208;10.00;38006.80
1726062361.555;208;10.00;38006.80
1726062361.605;232;10.00;42334.27
1726062361.655;225;10.00;41032.00
1726062361.705;225;10.00;41032.00
1726062361.754;225;10.00;41032.00
1726062361.805;215;10.00;39294.13
1726062361.855;224;10.00;40953.60
1726062361.906;224;10.00;40953.60
1726062361.956;224;10.00;40953.60
1726062362.005;224;10.00;40842.13
1726062362.056;218;10.00;39886.40
1726062362.106;218;10.00;39886.40
1726062362.156;218;10.00;39886.40
1726062362.205;226;10.00;41325.73
1726062362.255;223;10.00;40755.33
1726062362.306;223;10.00;40755.33
1726062362.355;223;10.00;40755.33
1726062362.406;215;10.00;39256.67
1726062362.456;224;10.00;40940.27
1726062362.506;224;10.00;40940.27
1726062362.557;224;10.00;40940.27
1726062362.608;199;10.00;36144.54
1726062362.657;205;10.00;37416.80
1726062362.708;205;10.00;37416.80
1726062362.757;205;10.00;37416.80
1726062362.807;225;10.00;41025.87
1726062362.857;221;10.00;40390.80
1726062362.908;221;10.00;40390.80
1726062362.958;221;10.00;40390.80
1726062363.007;229;10.00;41772.73
1726062363.057;230;10.00;41979.20
1726062363.108;230;10.00;41979.20
1726062363.158;230;10.00;41979.20
1726062363.208;203;10.00;36906.54
1726062363.258;225;10.00;41167.46
1726062363.308;225;10.00;41167.46
1726062363.358;225;10.00;41167.46
1726062363.409;221;10.00;40358.13
1726062375.834;203;10.00;36913.27
1726062375.883;195;10.00;35576.27
1726062375.933;195;10.00;35576.27
1726062375.983;193;10.00;35163.20
1726062376.034;227;10.00;41532.80
1726062376.084;231;10.00;42256.40
1726062376.133;231;10.00;42256.40
1726062376.183;231;10.00;42147.07
1726062376.234;209;10.00;38192.00
1726062376.283;209;10.00;38192.00
1726062376.334;209;10.00;38192.00
1726062376.384;212;10.00;38646.54
1726062376.433;226;10.00;41231.20
1726062376.484;226;10.00;41231.20
1726062376.534;226;10.00;41231.20
1726062376.584;215;10.00;39143.46
1726062376.634;237;10.00;43375.60
1726062376.684;237;10.00;43375.60
1726062376.734;237;10.00;43375.60
1726062376.784;207;10.00;37670.40
1726062376.834;202;10.00;36768.33
1726062376.884;203;10.00;37041.27
1726062376.934;203;10.00;37041.27
1726062376.985;203;10.00;37041.27
1726062377.034;208;10.00;37843.93
1726062377.085;230;10.00;42098.67
1726062377.134;199;10.00;36299.60
1726062377.185;199;10.00;36299.60
1726062377.234;199;10.00;36299.60
1726062377.284;192;10.00;35008.13
1726062377.335;231;10.00;42165.60
1726062377.384;229;10.00;41789.33
1726062377.435;229;10.00;41789.33
1726062377.484;229;10.00;41789.33
1726062377.535;229;10.00;41789.33
1726062377.584;216;10.00;39431.07
1726062377.635;207;10.00;37807.13
1726062377.684;207;10.00;37807.13
1726062377.734;207;10.00;37807.13
1726062377.784;222;10.00;40519.73
1726062377.834;230;10.00;42009.27
1726062377.884;230;10.00;42009.27
1726062377.934;230;10.00;42009.27
1726062377.984;224;10.00;40917.46
1726062378.034;231;10.00;42202.93
1726062378.084;237;10.00;43352.80
1726062378.134;237;10.00;43352.80
1726062378.184;213;10.00;38929.07
1726062378.234;218;10.00;39747.00
1726062378.284;206;10.00;37576.40
1726062378.335;206;10.00;37576.40
1726062378.384;211;10.00;38394.67
1726062378.435;199;10.00;36158.54
1726062378.484;216;10.00;39436.67
1726062378.534;216;10.00;39436.67
1726062378.585;216;10.00;39436.67
1726062378.634;237;10.00;43322.93
1726062378.685;241;10.00;44171.07
1726062378.735;241;10.00;44171.07
1726062378.785;241;10.00;44171.07
1726062378.834;241;10.00;44171.07
1726062378.888;213;10.00;38796.67
1726062378.936;242;10.00;44353.07
1726062378.985;242;10.00;44353.07
1726062379.035;242;10.00;44353.07
1726062379.086;222;10.00;40638.54
1726062379.136;224;10.00;40964.27
1726062379.186;224;10.00;40964.27
1726062379.236;224;10.00;40964.27
1726062379.286;231;10.00;42281.07
1726062379.336;231;10.00;42281.07
1726062379.387;231;10.00;42281.07
1726062379.438;231;10.00;42281.07
1726062379.488;199;10.00;36141.60
1726062379.537;239;10.00;43644.46
1726062379.587;239;10.00;43644.46
1726062379.637;239;10.00;43644.46
1726062379.687;234;10.00;42731.20
1726062379.738;201;10.00;36574.60
1726062379.788;201;10.00;36574.60
1726062379.838;201;10.00;36574.60
1726062379.888;224;10.00;40902.54
1726062379.937;198;10.00;35989.46
1726062379.988;235;10.00;43069.07
1726062380.038;235;10.00;43069.07
1726062380.089;235;10.00;43069.07
1726062380.140;233;10.00;42553.80
1726062380.189;199;10.00;36180.40
1726062380.239;199;10.00;36180.40
1726062380.289;199;10.00;36180.40
1726062380.340;223;10.00;40697.87
1726062380.389;216;10.00;39372.67
1726062380.439;216;10.00;39372.67
1726062380.489;216;10.00;39372.67
1726062380.539;230;10.00;41964.00
1726062392.501;210;10.00;38212.07
1726062392.550;193;10.00;35138.13
1726062392.601;193;10.00;35138.13
1726062392.651;200;10.00;36479.67
1726062392.709;225;10.00;41082.27
1726062392.756;233;10.00;42657.87
1726062392.807;233;10.00;42657.87
1726062392.856;233;10.00;42657.87
1726062392.907;252;10.00;46111.33
1726062392.957;252;10.00;46111.33
1726062393.008;252;10.00;46111.33
1726062393.058;228;10.00;41667.60
1726062393.107;226;10.00;41262.27
1726062393.157;226;10.00;41262.27
1726062393.207;226;10.00;41262.27
1726062393.257;241;10.00;44137.73
1726062393.309;217;10.00;39540.40
1726062393.359;217;10.00;39540.40
1726062393.410;221;10.00;40451.46
1726062393.459;230;10.00;42081.60
1726062393.509;224;10.00;40953.46
1726062393.560;224;10.00;40953.46
1726062393.610;224;10.00;40953.46
1726062393.660;224;10.00;40889.46
1726062393.710;219;10.00;39905.20
1726062393.760;219;10.00;39905.20
1726062393.810;219;10.00;39905.20
1726062393.860;210;10.00;38216.40
1726062393.911;222;10.00;40576.13
1726062393.961;230;10.00;41964.13
1726062394.011;230;10.00;41964.13
1726062394.061;230;10.00;41964.13
1726062394.113;223;10.00;40770.20
1726062394.162;240;10.00;43871.60
1726062394.213;232;10.00;42473.60
1726062394.263;232;10.00;42473.60
1726062394.313;221;10.00;40346.46
1726062394.363;236;10.00;43117.60
1726062394.413;218;10.00;39859.27
1726062394.463;218;10.00;39859.27
1726062394.513;226;10.00;41253.46
1726062394.563;222;10.00;40625.07
1726062394.613;209;10.00;38189.80
1726062394.664;209;10.00;38189.80
1726062394.714;211;10.00;38464.73
1726062394.764;218;10.00;39856.93
1726062394.814;218;10.00;39856.93
1726062394.864;218;10.00;39856.93
1726062394.914;219;10.00;40076.67
1726062394.964;235;10.00;42997.46
1726062395.014;226;10.00;41234.93
1726062395.063;226;10.00;41234.93
1726062395.113;231;10.00;42153.27
1726062395.163;239;10.00;43773.80
1726062395.213;202;10.00;36705.54
1726062395.263;202;10.00;36705.54
1726062395.313;202;10.00;36705.54
1726062395.364;244;10.00;44748.67
1726062395.413;252;10.00;46122.93
1726062395.464;235;10.00;43072.54
1726062395.514;235;10.00;43072.54
1726062395.564;235;10.00;43072.54
1726062395.614;213;10.00;38904.27
1726062395.664;210;10.00;38283.60
1726062395.715;210;10.00;38283.60
1726062395.765;210;10.00;38283.60
1726062395.816;218;10.00;39810.93
1726062395.865;201;10.00;36611.60
1726062395.917;201;10.00;36611.60
1726062395.967;201;10.00;36611.60
1726062396.016;237;10.00;43404.67
1726062396.067;240;10.00;43954.40
1726062396.117;240;10.00;43954.40
1726062396.167;240;10.00;43954.40
1726062396.217;208;10.00;37904.80
1726062396.267;208;10.00;37904.80
1726062396.317;208;10.00;37904.80
1726062396.367;208;10.00;37904.80
1726062396.418;242;10.00;44298.93
1726062396.468;231;10.00;42211.73
1726062396.518;231;10.00;42211.73
1726062396.568;231;10.00;42211.73
1726062396.618;231;10.00;42285.33
1726062396.668;213;10.00;38857.33
1726062396.718;232;10.00;42360.13
1726062396.769;232;10.00;42360.13
1726062396.819;232;10.00;42360.13
1726062396.870;211;10.00;38478.93
1726062396.920;236;10.00;43119.20
1726062396.969;236;10.00;43119.20
1726062397.020;236;10.00;43119.20
1726062397.070;236;10.00;43261.07
1726062397.121;235;10.00;42896.93
1726062397.171;235;10.00;42896.93
1726062397.221;235;10.00;42896.93
1726062397.271;241;10.00;44121.33
1726062397.321;221;10.00;40418.93
1726062397.371;221;10.00;40418.93
1726062397.421;221;10.00;40418.93
1726062397.471;225;10.00;41199.46
1726062397.521;240;10.00;43887.20
1726062397.571;240;10.00;43887.20
1726062397.621;240;10.00;43887.20
1726062397.672;193;10.00;35116.00
1726062397.723;207;10.00;37695.60
1726062397.772;207;10.00;37695.60
1726062397.823;207;10.00;37695.60
1726062397.873;207;10.00;37823.20
1726062458.749;50;22.35;34991.60
1726062458.799;50;22.35;34991.60
1726062458.848;50;22.35;34991.60
1726062458.899;50;22.79;35712.00
1726062458.949;50;23.67;37156.93
1726062458.999;50;23.61;37057.07
1726062459.049;50;23.61;37057.07
1726062459.099;50;23.61;37057.07
1726062459.149;50;27.58;43592.67
1726062459.199;50;24.46;38452.27
1726062459.249;50;24.00;37707.60
1726062459.300;50;24.00;37707.60
1726062459.349;50;24.00;37707.60
1726062459.399;50;25.66;40442.20
1726062459.449;50;24.97;39302.67
1726062459.500;50;24.97;39302.67
1726062459.550;50;24.97;39302.67
1726062459.600;50;24.97;39302.67
1726062459.700;50;26.62;42018.13
1726062459.749;50;26.62;42018.13
1726062459.801;50;26.62;42018.13
1726062459.850;50;22.66;35501.46
1726062459.901;50;22.57;35343.20
1726062459.951;50;22.57;35343.20
1726062460.001;50;22.57;35343.20
1726062460.052;50;23.09;36209.33
1726062460.102;50;23.09;36209.33
1726062460.153;50;23.09;36209.33
1726062460.204;50;23.09;36209.33
1726062460.403;50;25.70;40504.80
1726062460.453;50;25.78;40636.93
1726062460.503;50;25.78;40636.93
1726062460.554;50;25.78;40636.93
1726062460.604;50;25.70;40495.54
1726062460.653;50;22.91;35906.27
1726062460.704;50;22.91;35906.27
1726062460.754;50;22.91;35906.27
1726062460.804;50;28.21;44633.33
1726062460.854;50;23.30;36549.13
1726062460.904;50;23.30;36549.13
1726062460.954;50;23.30;36549.13
1726062461.003;50;24.32;38231.73
1726062461.054;50;24.30;38189.87
1726062461.105;50;24.12;37901.07
1726062461.155;50;24.12;37901.07
1726062461.205;50;24.10;37861.73
1726062461.255;50;22.74;35635.87
1726062461.306;50;22.74;35635.87
1726062461.355;50;22.74;35635.87
1726062461.405;50;22.74;35635.87
1726062461.456;50;24.83;39064.27
1726062461.506;50;25.98;40968.40
1726062461.556;50;25.98;40968.40
1726062461.606;50;25.98;40968.40
1726062461.656;50;25.00;39350.07
1726062461.706;50;24.37;38318.40
1726062461.756;50;24.38;38320.40
1726062461.806;50;24.38;38320.40
1726062461.856;50;24.38;38320.40
1726062461.906;50;24.79;38994.93
1726062461.956;50;26.92;42499.20
1726062462.006;50;26.92;42499.20
1726062462.056;50;26.92;42499.20
1726062462.106;50;26.92;42499.20
1726062462.156;50;25.91;40843.13
1726062462.207;50;28.46;45041.46
1726062462.257;50;28.46;45041.46
1726062462.307;50;28.46;45041.46
1726062462.357;50;25.58;40299.60
1726062462.407;50;27.81;43970.87
1726062462.457;50;27.81;43970.87
1726062462.507;50;27.81;43970.87
1726062462.557;50;26.62;42011.07
1726062462.608;50;26.49;41792.27
1726062462.658;50;26.12;41192.40
1726062462.707;50;26.12;41192.40
1726062462.757;50;26.44;41720.80
1726062462.807;50;25.20;39681.33
1726062462.858;50;23.47;36837.73
1726062462.909;50;23.47;36837.73
1726062462.958;50;27.36;43224.00
1726062463.009;50;27.62;43655.33
1726062463.059;50;27.62;43655.33
1726062463.110;50;27.62;43655.33
1726062463.159;50;26.42;41688.87
1726062463.210;50;24.58;38659.60
1726062463.259;50;24.43;38410.27
1726062463.309;50;24.43;38410.27
1726062463.359;50;25.27;39786.80
1726062463.409;50;26.75;42226.93
1726062463.610;50;26.77;42261.20
1726062463.660;50;23.68;37179.33
1726062463.710;50;23.68;37179.33
1726062463.760;50;23.68;37179.33
1726062463.811;50;24.55;38602.73
1726062463.860;50;24.23;38089.73
1726062463.911;50;24.23;38089.73
1726062463.960;50;24.23;38089.73
1726062464.011;50;24.33;38238.40
1726062464.060;50;24.83;39072.27
1726062464.110;50;24.09;37847.60
1726062464.161;50;24.09;37847.60
1726062464.210;50;24.09;37847.60
1726062464.260;50;25.72;40526.73
1726062476.991;50;23.28;36520.80
1726062477.042;50;23.04;36128.40
1726062477.092;50;23.04;36128.40
1726062477.143;50;23.04;36128.40
1726062477.393;50;23.30;36559.33
1726062477.443;50;23.30;36559.33
1726062477.494;50;23.30;36559.33
1726062477.544;50;24.11;37888.40
1726062477.594;50;24.11;37888.40
1726062477.644;50;24.11;37888.40
1726062477.694;50;25.19;39664.80
1726062477.745;50;23.99;37692.27
1726062477.794;50;23.99;37692.27
1726062477.845;50;23.99;37692.27
1726062477.895;50;27.50;43456.40
1726062477.944;50;28.19;44598.00
1726062477.994;50;28.19;44598.00
1726062478.045;50;28.19;44598.00
1726062478.095;50;23.74;37283.73
1726062478.144;50;24.94;39248.80
1726062478.194;50;24.94;39248.80
1726062478.244;50;24.94;39248.80
1726062478.295;50;28.08;44418.40
1726062478.345;50;27.80;43958.54
1726062478.394;50;25.31;39866.13
1726062478.444;50;25.31;39866.13
1726062478.495;50;25.31;39866.13
1726062478.545;50;24.50;38521.46
1726062478.595;50;28.30;44784.46
1726062478.646;50;28.30;44784.46
1726062478.695;50;28.30;44784.46
1726062478.745;50;25.99;40981.73
1726062478.795;50;26.73;42196.00
1726062478.846;50;26.73;42196.00
1726062478.896;50;26.73;42196.00
1726062478.945;50;24.64;38754.60
1726062478.997;50;28.48;45071.00
1726062479.047;50;28.48;45071.00
1726062479.097;50;28.48;45071.00
1726062479.147;50;25.24;39738.27
1726062479.198;50;27.88;44081.20
1726062479.247;50;27.88;44081.20
1726062479.297;50;27.88;44081.20
1726062479.348;50;25.64;40394.13
1726062479.398;50;25.26;39768.46
1726062479.447;50;25.26;39768.46
1726062479.498;50;25.17;39633.73
1726062479.547;50;26.34;41547.80
1726062479.598;50;25.48;40134.93
1726062479.648;50;25.48;40134.93
1726062479.698;50;25.48;40134.93
1726062479.748;50;24.34;38269.67
1726062479.797;50;28.47;45049.67
1726062479.848;50;28.47;45049.67
1726062479.899;50;28.47;45049.67
1726062479.949;50;24.70;38863.00
1726062479.998;50;27.22;42997.60
1726062480.049;50;27.22;42997.60
1726062480.099;50;27.22;42997.60
1726062480.149;50;25.55;40250.80
1726062480.199;50;25.52;40204.13
1726062480.250;50;25.52;40204.13
1726062480.299;50;25.52;40204.13
1726062480.350;50;22.65;35479.33
1726062480.399;50;23.26;36488.67
1726062480.449;50;23.26;36488.67
1726062480.499;50;23.48;36848.40
1726062480.550;50;26.30;41484.13
1726062480.599;50;25.02;39378.13
1726062480.650;50;25.02;39378.13
1726062480.699;50;25.02;39378.13
1726062480.749;50;25.71;40520.27
1726062480.799;50;27.56;43564.13
1726062480.850;50;27.56;43564.13
1726062480.900;50;27.56;43564.13
1726062480.950;50;26.43;41697.54
1726062481.000;50;27.94;44185.07
1726062481.049;50;27.94;44185.07
1726062481.100;50;27.94;44185.07
1726062481.150;50;24.59;38668.27
1726062481.199;50;26.13;41207.60
1726062481.249;50;26.13;41207.60
1726062481.300;50;26.13;41207.60
1726062481.351;50;26.28;41450.13
1726062481.401;50;25.54;40230.00
1726062481.451;50;25.54;40230.00
1726062481.501;50;26.30;41489.60
1726062481.550;50;25.42;40045.80
1726062481.600;50;22.77;35677.20
1726062481.652;50;22.77;35677.20
1726062481.702;50;23.78;37335.60
1726062481.757;50;24.75;38931.20
1726062493.913;50;23.41;36732.13
1726062494.013;50;22.84;35797.73
1726062494.063;50;22.84;35797.73
1726062494.113;50;24.56;38625.54
1726062494.163;50;23.74;37278.67
1726062494.213;50;27.74;43852.60
1726062494.264;50;27.74;43852.60
1726062494.314;50;26.95;42549.00
1726062494.364;50;23.10;36226.93
1726062494.414;50;23.49;36857.73
1726062494.464;50;23.49;36857.73
1726062494.514;50;23.49;36857.73
1726062494.564;50;23.90;37531.87
1726062494.614;50;26.42;41692.13
1726062494.664;50;26.42;41692.13
1726062494.715;50;26.42;41692.13
1726062494.765;50;26.86;42403.60
1726062494.814;50;26.09;41143.87
1726062494.865;50;26.09;41143.87
1726062494.914;50;28.05;44359.20
1726062494.966;50;23.16;36329.20
1726062495.016;50;24.20;38025.20
1726062495.065;50;24.20;38025.20
1726062495.115;50;25.76;40602.87
1726062495.165;50;23.87;37482.93
1726062495.215;50;23.72;37250.00
1726062495.265;50;23.72;37250.00
1726062495.316;50;23.72;37250.00
1726062495.416;50;26.28;41449.33
1726062495.465;50;26.28;41449.33
1726062495.516;50;26.28;41449.33
1726062495.565;50;28.45;45017.20
1726062495.616;50;27.42;43336.40
1726062495.666;50;27.42;43336.40
1726062495.717;50;26.47;41759.07
1726062495.771;50;25.10;39515.87
1726062495.819;50;25.12;39544.46
1726062495.869;50;25.12;39544.46
1726062495.919;50;26.51;41828.54
1726062495.969;50;23.42;36750.54
1726062496.020;50;27.66;43717.46
1726062496.070;50;27.66;43717.46
1726062496.120;50;22.91;35910.13
1726062496.169;50;24.93;39228.00
1726062496.220;50;25.07;39466.67
1726062496.270;50;25.07;39466.67
1726062496.321;50;25.25;39761.13
1726062496.371;50;24.61;38705.33
1726062496.421;50;24.84;39089.07
1726062496.470;50;24.84;39089.07
1726062496.521;50;24.84;39089.07
1726062496.571;50;23.28;36516.00
1726062496.622;50;23.28;36516.00
1726062496.671;50;23.28;36516.00
1726062496.721;50;26.41;41661.60
1726062496.773;50;24.26;38136.00
1726062496.823;50;24.26;38136.00
1726062496.873;50;24.26;38136.00
1726062496.923;50;23.94;37602.13
1726062496.973;50;24.87;39132.27
1726062497.023;50;24.87;39132.27
1726062497.073;50;24.87;39132.27
1726062497.123;50;23.93;37593.60
1726062497.173;50;25.64;40403.46
1726062497.223;50;25.60;40333.87
1726062497.273;50;25.60;40333.87
1726062497.323;50;25.60;40333.87
1726062497.373;50;24.60;38690.67
1726062497.423;50;26.25;41403.07
1726062497.473;50;25.26;39782.80
1726062497.523;50;25.26;39782.80
1726062497.573;50;25.26;39782.80
1726062497.623;50;28.10;44443.07
1726062497.674;50;26.32;41523.87
1726062497.723;50;26.68;42113.60
1726062497.774;50;26.68;42113.60
1726062497.824;50;22.88;35863.33
1726062497.873;50;24.53;38571.73
1726062497.923;50;25.17;39624.67
1726062497.973;50;25.17;39624.67
1726062498.023;50;26.60;41980.27
1726062498.073;50;23.49;36856.93
1726062498.123;50;26.75;42222.60
1726062498.173;50;26.75;42222.60
1726062498.224;50;23.73;37251.46
1726062498.273;50;22.93;35941.20
1726062498.323;50;22.78;35692.93
1726062498.374;50;22.78;35692.93
1726062498.423;50;22.78;35692.93
1726062498.473;50;26.75;42229.07
1726062498.524;50;27.51;43469.73
1726062498.573;50;27.51;43469.73
1726062498.624;50;27.51;43469.73
1726062498.674;50;28.07;44397.54
1726062498.724;50;22.59;35378.27
1726062498.774;50;22.59;35378.27
1726062498.824;50;22.59;35378.27
1726062498.874;50;26.10;41157.07
1726062498.924;50;26.36;41592.80
1726062498.975;50;26.36;41592.80
1726062499.025;50;26.36;41592.80
1726062499.074;50;24.51;38543.20
1726062606.974;200;22.56;35335.07
1726062607.024;200;22.51;35254.00
1726062607.074;200;22.51;35254.00
1726062607.124;200;22.51;35254.00
1726062607.174;200;23.90;37530.67
1726062607.224;200;26.17;41266.13
1726062607.274;200;26.17;41266.13
1726062607.324;200;26.17;41266.13
1726062607.374;200;23.21;36400.93
1726062607.425;200;23.00;36061.46
1726062607.475;200;23.00;36061.46
1726062607.526;200;23.00;36061.46
1726062607.576;200;28.37;44887.07
1726062607.625;200;25.20;39677.20
1726062607.676;200;25.20;39677.20
1726062607.727;200;25.20;39677.20
1726062607.776;200;26.54;41879.20
1726062607.827;200;27.02;42677.93
1726062607.876;200;27.02;42677.93
1726062607.927;200;27.02;42677.93
1726062607.977;200;25.33;39897.73
1726062608.028;200;25.33;39897.73
1726062608.078;200;25.33;39897.73
1726062608.128;200;28.54;45178.87
1726062608.178;200;23.90;37534.07
1726062608.228;200;23.64;37104.40
1726062608.279;200;23.64;37104.40
1726062608.330;200;23.64;37104.40
1726062608.379;200;25.85;40751.20
1726062608.430;200;27.38;43256.40
1726062608.479;200;27.38;43256.40
1726062608.530;200;27.38;43256.40
1726062608.581;200;25.44;40070.54
1726062608.630;200;25.45;40080.87
1726062608.681;200;25.45;40080.87
1726062608.730;200;28.23;44660.13
1726062608.780;200;24.88;39151.13
1726062608.830;200;24.88;39151.13
1726062608.880;200;24.88;39151.13
1726062608.930;200;23.40;36724.13
1726062608.981;200;26.78;42273.93
1726062609.031;200;26.78;42273.93
1726062609.083;200;26.78;42273.93
1726062609.133;200;27.22;43005.46
1726062609.183;200;27.36;43229.46
1726062609.233;200;27.36;43229.46
1726062609.283;200;27.36;43229.46
1726062609.333;200;26.84;42381.60
1726062609.383;200;27.54;43519.13
1726062609.433;200;27.54;43519.13
1726062609.483;200;27.54;43519.13
1726062609.533;200;27.17;42920.67
1726062609.583;200;27.19;42945.20
1726062609.633;200;22.86;35825.46
1726062609.683;200;22.86;35825.46
1726062609.733;200;22.86;35825.46
1726062609.783;200;23.74;37277.40
1726062609.833;200;28.48;45077.93
1726062609.883;200;28.48;45077.93
1726062609.933;200;28.48;45077.93
1726062609.983;200;24.88;39145.20
1726062610.033;200;23.19;36376.93
1726062610.083;200;23.19;36376.93
1726062610.134;200;23.19;36376.93
1726062610.184;200;24.41;38377.73
1726062610.234;200;25.53;40228.00
1726062610.284;200;25.53;40228.00
1726062610.334;200;25.53;40228.00
1726062610.384;200;24.61;38704.54
1726062610.434;200;28.46;45037.87
1726062610.484;200;28.46;45037.87
1726062610.534;200;28.46;45037.87
1726062610.584;200;27.35;43209.73
1726062610.634;200;27.35;43209.73
1726062610.684;200;27.35;43209.73
1726062610.734;200;28.17;44557.40
1726062610.784;200;26.43;41696.00
1726062610.834;200;23.80;37381.46
1726062610.884;200;23.80;37381.46
1726062610.934;200;23.80;37381.46
1726062610.984;200;26.17;41280.13
1726062611.035;200;26.60;41988.13
1726062611.085;200;26.60;41988.13
1726062611.134;200;26.60;41988.13
1726062611.184;200;23.50;36880.40
1726062611.234;200;26.14;41219.33
1726062611.284;200;26.14;41219.33
1726062611.334;200;26.59;41959.87
1726062611.384;200;24.86;39119.73
1726062611.434;200;22.66;35505.87
1726062611.485;200;22.66;35505.87
1726062611.534;200;22.66;35505.87
1726062611.584;200;27.51;43471.07
1726062611.635;200;27.51;43471.07
1726062611.685;200;27.51;43471.07
1726062611.735;200;28.75;45523.07
1726062611.785;200;25.69;40486.00
1726062611.835;200;25.69;40486.00
1726062611.886;200;25.69;40486.00
1726062611.936;200;23.98;37674.13
1726062624.393;200;22.94;35955.07
1726062624.444;200;22.94;35955.07
1726062624.493;200;22.94;35955.07
1726062624.544;200;23.16;36325.46
1726062624.594;200;22.82;35763.73
1726062624.644;200;22.85;35818.00
1726062624.694;200;22.85;35818.00
1726062624.744;200;27.41;43305.60
1726062624.794;200;26.94;42545.46
1726062624.844;200;26.94;42545.46
1726062624.894;200;26.94;42545.46
1726062624.944;200;23.02;36084.87
1726062624.994;200;23.69;37189.73
1726062625.044;200;23.69;37189.73
1726062625.094;200;23.69;37189.73
1726062625.151;200;22.51;35258.54
1726062625.199;200;27.53;43516.80
1726062625.249;200;27.53;43516.80
1726062625.300;200;27.53;43516.80
1726062625.349;200;27.53;43516.80
1726062625.401;200;24.18;37994.40
1726062625.450;200;25.46;40099.46
1726062625.500;200;25.46;40099.46
1726062625.550;200;25.46;40099.46
1726062625.600;200;26.19;41303.46
1726062625.651;200;26.90;42466.80
1726062625.701;200;26.90;42466.80
1726062625.751;200;26.90;42466.80
1726062625.801;200;25.51;40184.13
1726062625.851;200;26.20;41318.54
1726062625.901;200;26.20;41318.54
1726062625.950;200;26.32;41518.00
1726062626.000;200;29.02;45966.67
1726062626.050;200;29.02;45966.67
1726062626.101;200;29.02;45966.67
1726062626.151;200;23.22;36414.00
1726062626.200;200;25.10;39515.40
1726062626.252;200;24.82;39049.46
1726062626.302;200;24.82;39049.46
1726062626.352;200;24.82;39049.46
1726062626.403;200;27.89;44095.46
1726062626.453;200;26.91;42498.67
1726062626.503;200;26.91;42498.67
1726062626.553;200;26.91;42498.67
1726062626.603;200;22.78;35692.80
1726062626.653;200;22.38;35043.87
1726062626.703;200;22.38;35043.87
1726062626.753;200;22.38;35043.87
1726062626.803;200;26.83;42352.80
1726062626.853;200;23.04;36121.33
1726062626.903;200;23.04;36121.33
1726062626.953;200;23.04;36121.33
1726062627.003;200;23.48;36854.27
1726062627.053;200;23.58;37011.20
1726062627.103;200;23.58;37011.20
1726062627.153;200;24.55;38601.73
1726062627.203;200;23.42;36750.93
1726062627.253;200;22.64;35459.27
1726062627.303;200;22.64;35459.27
1726062627.353;200;23.86;37480.87
1726062627.410;200;23.38;36688.80
1726062627.453;200;23.38;36688.80
1726062627.504;200;23.38;36688.80
1726062627.553;200;25.20;39683.73
1726062627.603;200;25.92;40858.80
1726062627.653;200;26.04;41062.93
1726062627.703;200;26.04;41062.93
1726062627.754;200;24.10;37868.00
1726062627.804;200;25.33;39890.27
1726062627.854;200;25.33;39890.27
1726062627.904;200;25.33;39890.27
1726062627.954;200;26.76;42250.67
1726062628.004;200;29.32;46451.33
1726062628.054;200;29.32;46451.33
1726062628.104;200;29.32;46451.33
1726062628.154;200;25.07;39470.00
1726062628.204;200;25.50;40172.27
1726062628.254;200;25.50;40172.27
1726062628.304;200;25.50;40172.27
1726062628.354;200;25.50;40172.27
1726062628.404;200;24.67;38812.40
1726062628.454;200;24.86;39122.00
1726062628.504;200;24.86;39122.00
1726062628.554;200;24.86;39122.00
1726062628.607;200;24.06;37795.46
1726062628.655;200;27.89;44110.13
1726062628.706;200;27.89;44110.13
1726062628.756;200;27.89;44110.13
1726062628.806;200;24.35;38284.27
1726062628.856;200;24.35;38284.27
1726062628.906;200;24.35;38284.27
1726062628.956;200;24.88;39157.46
1726062629.006;200;25.90;40826.67
1726062629.056;200;25.90;40826.67
1726062629.107;200;25.90;40826.67
1726062629.156;200;25.60;40331.07
1726062641.441;200;23.76;37301.46
1726062641.490;200;23.76;37301.46
1726062641.541;200;24.87;39136.80
1726062641.591;200;25.72;40534.93
1726062641.643;200;25.72;40534.93
1726062641.692;200;25.72;40534.93
1726062641.743;200;26.60;41975.33
1726062641.793;200;26.55;41901.73
1726062641.843;200;26.55;41901.73
1726062641.893;200;26.55;41901.73
1726062641.943;200;24.97;39304.13
1726062641.995;200;24.61;38699.20
1726062642.043;200;25.11;39533.33
1726062642.093;200;25.11;39533.33
1726062642.143;200;25.11;39533.33
1726062642.193;200;25.52;40201.20
1726062642.243;200;28.02;44322.40
1726062642.293;200;28.02;44322.40
1726062642.343;200;28.02;44322.40
1726062642.393;200;27.06;42740.93
1726062642.443;200;26.90;42466.40
1726062642.493;200;26.90;42466.40
1726062642.543;200;26.90;42466.40
1726062642.593;200;26.33;41538.93
1726062642.643;200;25.03;39392.54
1726062642.693;200;25.03;39392.54
1726062642.743;200;25.03;39392.54
1726062642.793;200;23.86;37474.67
1726062642.844;200;28.23;44659.67
1726062642.893;200;26.83;42351.27
1726062642.943;200;26.83;42351.27
1726062642.993;200;23.12;36252.87
1726062643.043;200;23.44;36789.46
1726062643.094;200;25.27;39798.20
1726062643.144;200;25.27;39798.20
1726062643.194;200;25.27;39798.20
1726062643.244;200;29.00;45923.54
1726062643.293;200;25.94;40893.73
1726062643.344;200;25.94;40893.73
1726062643.394;200;25.94;40893.73
1726062643.444;200;23.52;36906.54
1726062643.495;200;24.09;37852.00
1726062643.545;200;23.68;37172.67
1726062643.594;200;23.68;37172.67
1726062643.645;200;26.52;41845.07
1726062643.695;200;26.02;41028.13
1726062643.745;200;23.16;36328.87
1726062643.795;200;23.16;36328.87
1726062643.845;200;27.27;43086.54
1726062643.895;200;28.44;45008.40
1726062643.944;200;26.17;41280.13
1726062643.995;200;26.17;41280.13
1726062644.045;200;26.96;42566.54
1726062644.095;200;29.31;46440.13
1726062644.145;200;24.43;38410.93
1726062644.195;200;24.43;38410.93
1726062644.245;200;24.43;38410.93
1726062644.296;200;26.29;41469.46
1726062644.346;200;26.57;41936.54
1726062644.395;200;26.57;41936.54
1726062644.446;200;26.57;41936.54
1726062644.497;200;26.25;41405.46
1726062644.546;200;25.56;40264.00
1726062644.596;200;25.56;40264.00
1726062644.646;200;25.56;40264.00
1726062644.696;200;25.27;39795.93
1726062644.747;200;26.52;41850.00
1726062644.797;200;24.96;39289.07
1726062644.847;200;24.96;39289.07
1726062644.897;200;24.96;39289.07
1726062644.947;200;24.75;38930.80
1726062644.997;200;24.75;38930.80
1726062645.047;200;24.75;38930.80
1726062645.099;200;25.44;40073.46
1726062645.149;200;25.70;40500.67
1726062645.199;200;25.70;40500.67
1726062645.249;200;28.77;45547.40
1726062645.299;200;26.17;41280.60
1726062645.349;200;26.17;41280.60
1726062645.398;200;26.17;41280.60
1726062645.449;200;25.53;40227.20
1726062645.498;200;26.10;41160.67
1726062645.550;200;26.10;41160.67
1726062645.600;200;26.10;41160.67
1726062645.649;200;27.41;43312.67
1726062645.700;200;27.41;43312.67
1726062645.750;200;27.41;43312.67
1726062645.800;200;26.09;41134.67
1726062645.850;200;23.67;37153.46
1726062645.900;200;23.67;37153.46
1726062645.951;200;23.67;37153.46
1726062646.002;200;24.30;38199.87
1726062646.052;200;28.50;45098.13
1726062646.102;200;28.50;45098.13
1726062646.151;200;28.50;45098.13
1726062646.203;200;23.43;36760.67
1726062646.253;200;27.31;43143.73
1726062646.303;200;27.31;43143.73
1726062646.353;200;27.31;43143.73
1726062646.403;200;25.67;40444.73
1726062835.252;350;22.79;35711.13
1726062835.303;350;22.79;35711.13
1726062835.352;350;22.79;35711.13
1726062835.403;350;25.52;40203.54
1726062835.452;350;25.19;39667.80
1726062835.503;350;25.19;39667.80
1726062835.553;350;25.19;39667.80
1726062835.602;350;26.51;41829.73
1726062835.653;350;28.09;44433.80
1726062835.702;350;28.09;44433.80
1726062835.753;350;28.09;44433.80
1726062835.803;350;24.91;39207.07
1726062835.853;350;24.91;39207.07
1726062835.903;350;24.91;39207.07
1726062835.953;350;27.65;43708.67
1726062836.003;350;23.59;37027.54
1726062836.053;350;23.59;37027.54
1726062836.103;350;23.59;37027.54
1726062836.153;350;28.14;44513.87
1726062836.205;350;23.77;37322.46
1726062836.255;350;24.43;38409.07
1726062836.306;350;24.43;38409.07
1726062836.355;350;24.43;38409.07
1726062836.405;350;24.85;39097.20
1726062836.455;350;27.45;43386.40
1726062836.505;350;27.45;43386.40
1726062836.555;350;27.45;43386.40
1726062836.605;350;25.99;40971.33
1726062836.656;350;24.62;38725.87
1726062836.706;350;24.62;38725.87
1726062836.756;350;24.62;38725.87
1726062836.806;350;27.43;43348.80
1726062836.856;350;27.81;43973.87
1726062836.905;350;27.81;43973.87
1726062836.956;350;27.81;43973.87
1726062837.006;350;23.96;37636.80
1726062837.056;350;24.70;38850.80
1726062837.106;350;24.70;38850.80
1726062837.156;350;24.70;38850.80
1726062837.206;350;24.02;37728.80
1726062837.256;350;23.86;37475.73
1726062837.307;350;23.86;37475.73
1726062837.356;350;23.86;37475.73
1726062837.407;350;26.71;42154.00
1726062837.457;350;28.26;44711.73
1726062837.507;350;28.26;44711.73
1726062837.556;350;28.26;44711.73
1726062837.608;350;25.45;40092.00
1726062837.657;350;24.61;38710.80
1726062837.707;350;24.61;38710.80
1726062837.758;350;24.61;38710.80
1726062837.808;350;28.22;44639.60
1726062837.858;350;27.12;42844.13
1726062837.908;350;27.12;42844.13
1726062837.958;350;26.77;42254.80
1726062838.008;350;22.86;35829.60
1726062838.057;350;23.91;37557.60
1726062838.108;350;23.91;37557.60
1726062838.158;350;27.17;42912.00
1726062838.208;350;23.75;37293.60
1726062838.258;350;24.19;38012.80
1726062838.308;350;24.19;38012.80
1726062838.358;350;25.50;40167.33
1726062838.408;350;23.54;36940.27
1726062838.458;350;23.39;36703.60
1726062838.508;350;23.39;36703.60
1726062838.558;350;23.80;37381.87
1726062838.608;350;25.44;40078.93
1726062838.658;350;23.23;36434.40
1726062838.708;350;23.23;36434.40
1726062838.758;350;23.23;36434.40
1726062838.808;350;24.25;38115.54
1726062838.858;350;25.66;40427.33
1726062838.908;350;25.66;40427.33
1726062838.958;350;25.66;40427.33
1726062839.008;350;23.34;36620.13
1726062839.058;350;28.41;44961.54
1726062839.108;350;28.41;44961.54
1726062839.158;350;28.41;44961.54
1726062839.208;350;27.75;43873.07
1726062839.258;350;24.55;38600.40
1726062839.308;350;24.55;38600.40
1726062839.359;350;24.55;38600.40
1726062839.410;350;28.63;45326.40
1726062839.460;350;24.97;39291.60
1726062839.510;350;24.97;39291.60
1726062839.560;350;24.97;39291.60
1726062839.611;350;24.79;38999.07
1726062839.660;350;28.65;45359.20
1726062839.710;350;28.65;45359.20
1726062839.760;350;28.65;45359.20
1726062839.810;350;26.57;41929.33
1726062839.860;350;27.50;43455.60
1726062839.911;350;27.50;43455.60
1726062839.960;350;28.08;44423.33
1726062840.011;350;22.69;35546.40
1726062840.060;350;23.35;36639.00
1726062840.111;350;23.35;36639.00
1726062840.160;350;24.17;37987.87
1726062840.210;350;25.90;40831.00
1726062840.260;350;23.42;36748.40
1726062840.310;350;23.42;36748.40
1726062840.360;350;25.47;40115.93
1726062840.410;350;23.17;36335.07
1726062852.668;350;24.39;38337.07
1726062852.718;350;24.20;38039.67
1726062852.769;350;24.20;38039.67
1726062852.819;350;24.20;38039.67
1726062852.869;350;24.86;39111.60
1726062852.920;350;25.45;40092.13
1726062852.969;350;25.45;40092.13
1726062853.019;350;25.45;40092.13
1726062853.069;350;26.48;41787.73
1726062853.120;350;26.45;41739.07
1726062853.169;350;26.45;41739.07
1726062853.220;350;27.41;43313.46
1726062853.269;350;25.65;40415.07
1726062853.319;350;25.65;40415.07
1726062853.370;350;25.65;40415.07
1726062853.420;350;23.36;36644.27
1726062853.471;350;28.09;44434.80
1726062853.520;350;28.09;44434.80
1726062853.571;350;28.09;44434.80
1726062853.621;350;26.31;41507.60
1726062853.670;350;27.07;42753.46
1726062853.721;350;27.07;42753.46
1726062853.773;350;27.07;42753.46
1726062853.823;350;26.86;42405.60
1726062853.873;350;27.11;42812.13
1726062853.923;350;27.11;42812.13
1726062853.973;350;27.11;42812.13
1726062854.023;350;26.52;41849.46
1726062854.073;350;25.08;39477.27
1726062854.124;350;24.21;38045.87
1726062854.174;350;24.21;38045.87
1726062854.224;350;24.21;38045.87
1726062854.274;350;27.63;43678.46
1726062854.323;350;27.05;42722.93
1726062854.374;350;27.05;42722.93
1726062854.424;350;27.05;42722.93
1726062854.474;350;24.53;38582.54
1726062854.524;350;24.53;38582.54
1726062854.575;350;24.53;38582.54
1726062854.625;350;23.37;36671.73
1726062854.675;350;23.93;37587.46
1726062854.725;350;23.93;37587.46
1726062854.776;350;24.80;39020.80
1726062854.826;350;22.88;35853.33
1726062854.876;350;24.79;39000.80
1726062854.926;350;24.79;39000.80
1726062854.977;350;24.11;37882.87
1726062855.026;350;25.88;40800.13
1726062855.077;350;23.04;36130.20
1726062855.127;350;23.04;36130.20
1726062855.177;350;23.04;36130.20
1726062855.227;350;24.37;38317.46
1726062855.278;350;25.89;40804.93
1726062855.328;350;25.89;40804.93
1726062855.378;350;25.89;40804.93
1726062855.428;350;22.99;36035.87
1726062855.479;350;25.97;40946.13
1726062855.529;350;28.43;44989.54
1726062855.579;350;28.43;44989.54
1726062855.629;350;28.43;44989.54
1726062855.679;350;27.06;42736.13
1726062855.729;350;27.47;43407.80
1726062855.779;350;27.47;43407.80
1726062855.830;350;27.47;43407.80
1726062855.880;350;25.41;40019.07
1726062855.930;350;25.64;40408.87
1726062855.981;350;25.64;40408.87
1726062856.031;350;25.64;40408.87
1726062856.081;350;24.70;38848.54
1726062856.131;350;26.35;41561.33
1726062856.182;350;26.35;41561.33
1726062856.231;350;26.35;41561.33
1726062856.282;350;27.92;44154.40
1726062856.333;350;23.63;37093.33
1726062856.383;350;23.63;37093.33
1726062856.433;350;23.63;37093.33
1726062856.483;350;23.90;37542.54
1726062856.533;350;25.03;39396.27
1726062856.583;350;23.99;37694.54
1726062856.633;350;23.99;37694.54
1726062856.682;350;24.11;37886.00
1726062856.733;350;26.07;41104.27
1726062856.783;350;24.62;38729.13
1726062856.836;350;24.62;38729.13
1726062856.883;350;25.24;39742.73
1726062856.933;350;24.73;38908.54
1726062856.983;350;23.93;37586.27
1726062857.033;350;23.93;37586.27
1726062857.083;350;23.93;37586.27
1726062857.133;350;24.94;39252.13
1726062857.183;350;27.43;43344.87
1726062857.233;350;27.43;43344.87
1726062857.283;350;27.43;43344.87
1726062857.334;350;25.19;39661.46
1726062857.384;350;25.88;40794.87
1726062857.434;350;25.88;40794.87
1726062857.484;350;25.88;40794.87
1726062857.533;350;24.63;38737.20
1726062857.585;350;27.96;44213.67
1726062857.634;350;27.96;44213.67
1726062857.685;350;27.96;44213.67
1726062857.735;350;27.78;43914.00
1726062869.784;350;22.79;35720.80
1726062869.834;350;22.79;35720.80
1726062869.885;350;22.79;35720.80
1726062869.936;350;23.82;37408.27
1726062869.986;350;24.09;37859.07
1726062870.036;350;24.09;37859.07
1726062870.085;350;24.09;37859.07
1726062870.135;350;27.93;44169.60
1726062870.186;350;25.27;39787.60
1726062870.236;350;25.27;39787.60
1726062870.286;350;25.27;39787.60
1726062870.336;350;25.98;40960.73
1726062870.386;350;28.06;44390.07
1726062870.436;350;28.06;44390.07
1726062870.487;350;25.12;39542.13
1726062870.537;350;25.33;39895.54
1726062870.586;350;25.78;40639.20
1726062870.636;350;25.78;40639.20
1726062870.686;350;24.58;38664.13
1726062870.737;350;27.26;43074.40
1726062870.787;350;23.90;37544.67
1726062870.838;350;23.90;37544.67
1726062870.888;350;23.90;37544.67
1726062870.938;350;23.14;36283.20
1726062870.988;350;23.93;37593.46
1726062871.038;350;23.93;37593.46
1726062871.089;350;23.93;37593.46
1726062871.139;350;23.72;37243.07
1726062871.189;350;25.55;40251.13
1726062871.239;350;25.55;40251.13
1726062871.289;350;25.55;40251.13
1726062871.338;350;24.47;38480.13
1726062871.389;350;25.24;39738.54
1726062871.439;350;25.24;39738.54
1726062871.489;350;25.24;39738.54
1726062871.539;350;25.72;40535.73
1726062871.593;350;25.31;39851.87
1726062871.640;350;25.31;39851.87
1726062871.691;350;25.31;39851.87
1726062871.741;350;23.35;36634.54
1726062871.791;350;27.78;43914.80
1726062871.840;350;27.78;43914.80
1726062871.891;350;27.78;43914.80
1726062871.941;350;25.38;39973.73
1726062871.991;350;27.56;43552.60
1726062872.041;350;27.56;43552.60
1726062872.092;350;27.56;43552.60
1726062872.142;350;28.12;44483.27
1726062872.191;350;24.95;39264.00
1726062872.241;350;24.95;39264.00
1726062872.291;350;24.95;39264.00
1726062872.342;350;28.36;44868.54
1726062872.393;350;27.14;42872.33
1726062872.443;350;27.14;42872.33
1726062872.493;350;27.14;42872.33
1726062872.543;350;25.04;39408.27
1726062872.592;350;24.39;38343.07
1726062872.642;350;24.39;38343.07
1726062872.692;350;24.39;38343.07
1726062872.743;350;25.38;39980.80
1726062872.793;350;25.18;39646.46
1726062872.843;350;25.18;39646.46
1726062872.893;350;25.18;39646.46
1726062872.943;350;23.96;37642.13
1726062872.993;350;23.39;36702.27
1726062873.042;350;23.39;36702.27
1726062873.093;350;23.39;36702.27
1726062873.144;350;23.86;37473.40
1726062873.193;350;25.42;40046.40
1726062873.243;350;25.42;40046.40
1726062873.294;350;25.42;40046.40
1726062873.344;350;24.59;38667.33
1726062873.393;350;27.62;43656.07
1726062873.444;350;27.62;43656.07
1726062873.494;350;27.62;43656.07
1726062873.544;350;25.04;39411.87
1726062873.594;350;26.08;41117.93
1726062873.644;350;26.08;41117.93
1726062873.694;350;26.08;41117.93
1726062873.743;350;25.70;40494.00
1726062873.794;350;25.93;40881.60
1726062873.844;350;25.93;40881.60
1726062873.894;350;25.93;40881.60
1726062873.944;350;28.42;44977.20
1726062873.994;350;24.78;38984.93
1726062874.044;350;24.78;38984.93
1726062874.094;350;24.78;38984.93
1726062874.145;350;24.78;38984.93
1726062874.195;350;25.70;40499.07
1726062874.245;350;26.15;41243.93
1726062874.294;350;26.15;41243.93
1726062874.346;350;26.15;41243.93
1726062874.395;350;24.69;38839.20
1726062874.445;350;24.35;38272.27
1726062874.496;350;24.84;39079.33
1726062874.547;350;24.84;39079.33
1726062874.597;350;24.84;39079.33
1726062874.646;350;28.63;45322.27
1726062874.698;350;26.65;42062.13
1726062874.748;350;26.65;42062.13
1726062874.798;350;24.17;37989.80
1726062874.848;350;22.93;35946.93
1726062874.898;350;23.00;36060.27
1726062874.947;350;23.00;36060.27
1726062874.998;350;25.27;39795.20
1726062875.048;350;25.02;39376.20
1726062975.395;500;22.66;35492.54
1726062975.445;500;22.66;35492.54
1726062975.495;500;22.66;35492.54
1726062975.545;500;22.66;35492.54
1726062975.595;500;23.18;36358.40
1726062975.645;500;23.18;36358.40
1726062975.695;500;23.18;36358.40
1726062975.745;500;24.77;38970.00
1726062975.796;500;23.73;37262.80
1726062975.846;500;23.73;37262.80
1726062975.895;500;23.73;37262.80
1726062975.945;500;27.56;43555.46
1726062975.995;500;26.59;41961.20
1726062976.045;500;26.59;41961.20
1726062976.095;500;26.59;41961.20
1726062976.146;500;25.26;39779.73
1726062976.197;500;25.15;39601.33
1726062976.246;500;25.15;39601.33
1726062976.305;500;25.15;39601.33
1726062976.346;500;23.07;36173.07
1726062976.396;500;25.11;39525.07
1726062976.446;500;25.11;39525.07
1726062976.496;500;25.11;39525.07
1726062976.547;500;26.04;41056.40
1726062976.598;500;25.83;40714.67
1726062976.648;500;25.83;40714.67
1726062976.697;500;25.83;40714.67
1726062976.747;500;24.67;38806.13
1726062976.797;500;27.41;43306.67
1726062976.847;500;27.41;43306.67
1726062976.898;500;27.41;43306.67
1726062976.947;500;27.95;44206.20
1726062976.998;500;26.59;41965.33
1726062977.048;500;26.59;41965.33
1726062977.098;500;26.59;41965.33
1726062977.148;500;24.26;38127.27
1726062977.199;500;24.02;37743.73
1726062977.249;500;24.02;37743.73
1726062977.299;500;24.02;37743.73
1726062977.351;500;26.16;41260.00
1726062977.400;500;24.29;38172.54
1726062977.451;500;24.29;38172.54
1726062977.500;500;24.29;38172.54
1726062977.550;500;24.29;38172.54
1726062977.602;500;26.53;41863.33
1726062977.651;500;27.73;43836.40
1726062977.702;500;27.73;43836.40
1726062977.752;500;27.73;43836.40
1726062977.803;500;28.14;44517.33
1726062977.852;500;26.59;41970.13
1726062977.902;500;26.59;41970.13
1726062977.952;500;26.59;41970.13
1726062978.003;500;25.62;40366.80
1726062978.053;500;25.23;39730.93
1726062978.102;500;25.23;39730.93
1726062978.153;500;25.23;39730.93
1726062978.202;500;25.32;39879.46
1726062978.253;500;27.66;43720.20
1726062978.303;500;27.66;43720.20
1726062978.352;500;27.66;43720.20
1726062978.403;500;24.92;39224.40
1726062978.453;500;28.08;44411.20
1726062978.503;500;28.08;44411.20
1726062978.553;500;28.08;44411.20
1726062978.603;500;26.01;41007.60
1726062978.654;500;27.64;43695.07
1726062978.703;500;27.64;43695.07
1726062978.753;500;27.64;43695.07
1726062978.803;500;27.06;42732.20
1726062978.853;500;23.61;37068.60
1726062978.904;500;23.61;37068.60
1726062978.953;500;23.61;37068.60
1726062979.003;500;28.17;44561.33
1726062979.054;500;26.97;42594.27
1726062979.104;500;26.30;41481.60
1726062979.154;500;26.30;41481.60
1726062979.203;500;26.30;41481.60
1726062979.254;500;25.63;40382.80
1726062979.303;500;25.62;40365.46
1726062979.353;500;25.62;40365.46
1726062979.404;500;25.62;40365.46
1726062979.454;500;25.67;40443.20
1726062979.504;500;26.05;41071.07
1726062979.554;500;26.05;41071.07
1726062979.603;500;26.05;41071.07
1726062979.654;500;26.45;41737.73
1726062979.704;500;28.12;44473.73
1726062979.754;500;28.12;44473.73
1726062979.804;500;28.12;44473.73
1726062979.854;500;25.72;40528.80
1726062979.905;500;25.28;39811.20
1726062979.955;500;25.28;39811.20
1726062980.004;500;25.28;39811.20
1726062980.054;500;25.15;39594.00
1726062980.105;500;23.82;37403.60
1726062980.154;500;26.18;41290.54
1726062980.206;500;26.18;41290.54
1726062980.255;500;26.18;41290.54
1726062980.306;500;25.20;39674.40
1726062980.356;500;27.46;43394.93
1726062980.405;500;25.33;39887.87
1726062980.456;500;25.33;39887.87
1726062980.505;500;25.33;39887.87
1726062980.556;500;24.57;38639.40
1726062980.606;500;25.23;39734.13
1726062980.656;500;25.23;39734.13
1726062980.706;500;25.43;40056.27
1726062980.756;500;26.30;41483.46
1726062980.806;500;23.52;36909.73
1726062980.856;500;23.52;36909.73
1726062980.906;500;23.52;36909.73
1726062980.957;500;24.93;39226.40
1726062981.006;500;25.76;40603.33
1726062993.203;500;22.66;35505.87
1726062993.253;500;22.82;35757.46
1726062993.302;500;23.89;37514.93
1726062993.352;500;23.89;37514.93
1726062993.403;500;23.89;37514.93
1726062993.453;500;24.83;39062.93
1726062993.502;500;23.47;36833.73
1726062993.553;500;23.47;36833.73
1726062993.603;500;23.47;36833.73
1726062993.653;500;27.81;43968.46
1726062993.703;500;26.83;42366.67
1726062993.753;500;26.83;42366.67
1726062993.802;500;26.83;42366.67
1726062993.853;500;24.36;38298.93
1726062993.903;500;26.84;42368.40
1726062993.953;500;26.84;42368.40
1726062994.003;500;26.84;42368.40
1726062994.053;500;25.81;40673.87
1726062994.103;500;26.79;42295.20
1726062994.154;500;26.79;42295.20
1726062994.204;500;26.79;42295.20
1726062994.254;500;26.79;42295.20
1726062994.304;500;24.03;37758.40
1726062994.354;500;24.97;39302.40
1726062994.404;500;24.97;39302.40
1726062994.453;500;24.97;39302.40
1726062994.504;500;26.14;41221.20
1726062994.554;500;26.01;41009.60
1726062994.604;500;26.01;41009.60
1726062994.654;500;26.01;41009.60
1726062994.704;500;25.42;40042.27
1726062994.754;500;26.74;42204.54
1726062994.804;500;26.74;42204.54
1726062994.854;500;26.74;42204.54
1726062994.905;500;25.05;39431.54
1726062994.955;500;25.05;39431.54
1726062995.005;500;25.05;39431.54
1726062995.054;500;25.05;39431.54
1726062995.105;500;24.15;37954.54
1726062995.155;500;25.26;39768.54
1726062995.205;500;25.26;39768.54
1726062995.256;500;25.26;39768.54
1726062995.306;500;23.29;36532.40
1726062995.356;500;24.15;37945.46
1726062995.406;500;24.15;37945.46
1726062995.457;500;24.15;37945.46
1726062995.506;500;23.28;36518.54
1726062995.556;500;23.65;37123.07
1726062995.607;500;23.65;37123.07
1726062995.658;500;23.65;37123.07
1726062995.709;500;27.98;44242.93
1726062995.759;500;27.98;44242.93
1726062995.809;500;27.98;44242.93
1726062995.860;500;27.98;44242.93
1726062995.910;500;27.46;43394.13
1726062995.960;500;27.22;42992.67
1726062996.011;500;27.22;42992.67
1726062996.060;500;27.22;42992.67
1726062996.112;500;25.72;40525.20
1726062996.162;500;25.72;40525.20
1726062996.212;500;25.72;40525.20
1726062996.261;500;25.72;40525.20
1726062996.313;500;24.89;39172.00
1726062996.363;500;27.33;43181.33
1726062996.412;500;27.33;43181.33
1726062996.462;500;27.33;43181.33
1726062996.512;500;25.77;40609.67
1726062996.562;500;27.86;44051.20
1726062996.613;500;23.46;36811.60
1726062996.663;500;23.46;36811.60
1726062996.713;500;23.46;36811.60
1726062996.763;500;23.89;37525.46
1726062996.813;500;23.26;36481.60
1726062996.863;500;23.14;36289.87
1726062996.913;500;23.14;36289.87
1726062996.963;500;25.44;40064.13
1726062997.013;500;25.88;40796.00
1726062997.063;500;25.88;40796.00
1726062997.113;500;25.88;40796.00
1726062997.163;500;24.76;38956.67
1726062997.214;500;25.37;39951.20
1726062997.264;500;25.37;39951.20
1726062997.314;500;25.37;39951.20
1726062997.364;500;25.37;39951.20
1726062997.414;500;25.27;39788.67
1726062997.463;500;25.27;39788.67
1726062997.514;500;25.27;39788.67
1726062997.564;500;25.47;40122.80
1726062997.613;500;25.31;39853.93
1726062997.664;500;25.75;40582.00
1726062997.714;500;25.75;40582.00
1726062997.764;500;23.73;37261.73
1726062997.814;500;25.97;40941.93
1726062997.864;500;25.97;40941.93
1726062997.914;500;25.97;40941.93
1726062997.964;500;26.49;41797.20
1726062998.014;500;23.04;36118.60
1726062998.064;500;23.04;36118.60
1726062998.114;500;23.04;36118.60
1726062998.164;500;23.59;37036.27
1726063010.149;500;22.76;35664.40
1726063010.199;500;22.76;35664.40
1726063010.249;500;22.76;35664.40
1726063010.299;500;24.10;37860.54
1726063010.349;500;25.21;39699.20
1726063010.400;500;25.21;39699.20
1726063010.451;500;27.47;43405.46
1726063010.501;500;27.17;42917.46
1726063010.551;500;25.30;39845.33
1726063010.601;500;25.30;39845.33
1726063010.651;500;25.30;39845.33
1726063010.702;500;25.57;40289.33
1726063010.752;500;25.57;40289.33
1726063010.803;500;25.57;40289.33
1726063010.853;500;26.50;41814.67
1726063010.903;500;25.66;40430.87
1726063010.953;500;25.66;40430.87
1726063011.003;500;25.66;40430.87
1726063011.053;500;23.25;36461.87
1726063011.103;500;23.12;36254.27
1726063011.153;500;23.12;36254.27
1726063011.203;500;23.12;36254.27
1726063011.253;500;25.04;39420.67
1726063011.303;500;23.71;37229.20
1726063011.353;500;23.71;37229.20
1726063011.402;500;23.71;37229.20
1726063011.453;500;26.17;41267.73
1726063011.502;500;25.86;40763.07
1726063011.553;500;25.86;40763.07
1726063011.603;500;25.86;40763.07
1726063011.653;500;25.08;39486.80
1726063011.703;500;23.79;37355.87
1726063011.753;500;27.79;43945.07
1726063011.803;500;27.79;43945.07
1726063011.854;500;26.71;42162.93
1726063011.904;500;25.91;40851.60
1726063011.953;500;27.46;43392.87
1726063012.003;500;27.46;43392.87
1726063012.053;500;25.69;40485.20
1726063012.104;500;27.09;42790.80
1726063012.154;500;27.09;42790.80
1726063012.204;500;27.09;42790.80
1726063012.253;500;26.99;42628.67
1726063012.304;500;25.34;39911.33
1726063012.354;500;25.90;40833.07
1726063012.404;500;25.90;40833.07
1726063012.454;500;25.90;40833.07
1726063012.504;500;26.36;41593.73
1726063012.554;500;25.44;40067.54
1726063012.604;500;25.44;40067.54
1726063012.655;500;25.44;40067.54
1726063012.705;500;25.26;39779.87
1726063012.755;500;25.34;39912.67
1726063012.804;500;25.34;39912.67
1726063012.854;500;25.34;39912.67
1726063012.904;500;26.09;41147.73
1726063012.955;500;26.09;41147.73
1726063013.004;500;26.09;41147.73
1726063013.055;500;25.60;40332.54
1726063013.104;500;25.10;39509.60
1726063013.154;500;25.75;40585.33
1726063013.204;500;25.75;40585.33
1726063013.255;500;25.18;39643.20
1726063013.304;500;26.43;41693.87
1726063013.354;500;24.98;39313.46
1726063013.406;500;24.98;39313.46
1726063013.456;500;24.98;39313.46
1726063013.506;500;24.81;39034.13
1726063013.556;500;23.95;37619.73
1726063013.606;500;23.95;37619.73
1726063013.656;500;24.05;37792.27
1726063013.706;500;25.50;40175.73
1726063013.756;500;26.01;41017.07
1726063013.806;500;26.01;41017.07
1726063013.856;500;26.01;41017.07
1726063013.905;500;25.68;40465.07
1726063013.956;500;24.95;39273.67
1726063014.006;500;24.95;39273.67
1726063014.056;500;24.95;39273.67
1726063014.106;500;25.78;40637.46
1726063014.156;500;25.27;39787.67
1726063014.207;500;25.27;39787.67
1726063014.257;500;25.27;39787.67
1726063014.307;500;25.59;40326.00
1726063014.357;500;24.66;38780.93
1726063014.407;500;24.66;38780.93
1726063014.456;500;24.66;38780.93
1726063014.508;500;24.96;39286.46
1726063014.558;500;25.19;39665.13
1726063014.608;500;25.19;39665.13
1726063014.658;500;23.88;37505.73
1726063014.707;500;25.61;40348.27
1726063014.758;500;25.61;40348.27
1726063014.807;500;25.61;40348.27
1726063014.858;500;23.39;36694.93
1726063014.908;500;26.15;41233.73
1726063014.958;500;26.15;41233.73
1726063015.009;500;26.15;41233.73
1726063015.058;500;26.79;42295.07
1726063015.109;500;25.39;39994.00
1726063015.159;500;25.39;39994.00
1726063015.210;500;25.39;39994.00
1726063015.260;500;23.84;37438.00
1726063015.310;500;29.01;45947.33
1726063067.750;193;20.00;35161.33
1726063067.950;219;20.00;40040.40
1726063068.101;195;20.00;35418.00
1726063068.151;211;20.00;38422.93
1726063068.300;208;20.00;37872.67
1726063068.351;196;20.00;35731.87
1726063068.400;196;20.00;35731.87
1726063068.450;196;20.00;35731.87
1726063068.500;210;20.00;38307.93
1726063068.551;215;20.00;39157.46
1726063068.600;222;20.00;40518.93
1726063068.650;222;20.00;40518.93
1726063068.700;205;20.00;37428.27
1726063068.750;242;20.00;44222.07
1726063068.800;242;20.00;44222.07
1726063068.851;242;20.00;44222.07
1726063068.901;223;20.00;40760.54
1726063068.952;210;20.00;38328.93
1726063069.001;210;20.00;38328.93
1726063069.051;210;20.00;38328.93
1726063069.101;220;20.00;40222.13
1726063069.152;220;20.00;40222.13
1726063069.201;220;20.00;40222.13
1726063069.252;244;20.00;44583.93
1726063069.301;216;20.00;39514.40
1726063069.351;216;20.00;39514.40
1726063069.401;216;20.00;39514.40
1726063069.451;243;20.00;44444.80
1726063069.501;239;20.00;43778.67
1726063069.551;239;20.00;43778.67
1726063069.601;238;20.00;43559.20
1726063069.651;218;20.00;39823.07
1726063069.701;218;20.00;39823.07
1726063069.752;218;20.00;39823.07
1726063069.802;218;20.00;39729.73
1726063069.851;234;20.00;42816.73
1726063069.901;234;20.00;42816.73
1726063069.952;234;20.00;42816.73
1726063070.001;233;20.00;42531.46
1726063070.051;218;20.00;39737.73
1726063070.101;230;20.00;42136.00
1726063070.152;230;20.00;42136.00
1726063070.202;230;20.00;42136.00
1726063070.251;233;20.00;42629.46
1726063070.302;213;20.00;38793.20
1726063070.352;213;20.00;38793.20
1726063070.403;213;20.00;38793.20
1726063070.453;239;20.00;43813.46
1726063070.502;246;20.00;45004.67
1726063070.553;246;20.00;45004.67
1726063070.602;246;20.00;45004.67
1726063070.653;213;20.00;38908.13
1726063070.703;214;20.00;39078.00
1726063070.753;214;20.00;39078.00
1726063070.802;214;20.00;39078.00
1726063070.853;227;20.00;41452.13
1726063070.903;223;20.00;40809.87
1726063070.952;223;20.00;40809.87
1726063071.003;223;20.00;40809.87
1726063071.052;218;20.00;39720.27
1726063071.102;241;20.00;44114.54
1726063071.152;235;20.00;42923.60
1726063071.203;235;20.00;42923.60
1726063071.253;235;20.00;42923.60
1726063071.303;214;20.00;39075.13
1726063071.353;231;20.00;42177.46
1726063071.402;231;20.00;42177.46
1726063071.453;231;20.00;42177.46
1726063071.503;214;20.00;39072.00
1726063071.553;224;20.00;40878.93
1726063071.602;232;20.00;42349.60
1726063071.653;232;20.00;42349.60
1726063071.702;230;20.00;42089.73
1726063071.753;219;20.00;40058.33
1726063071.802;211;20.00;38408.00
1726063071.853;211;20.00;38408.00
1726063071.903;223;20.00;40743.60
1726063071.954;215;20.00;39206.67
1726063072.004;208;20.00;37942.40
1726063072.054;208;20.00;37942.40
1726063072.104;198;20.00;35986.80
1726063072.154;234;20.00;42845.60
1726063072.203;223;20.00;40808.13
1726063072.254;223;20.00;40808.13
1726063072.304;219;20.00;39891.73
1726063072.354;209;20.00;38182.00
1726063072.404;209;20.00;38070.40
1726063072.453;209;20.00;38070.40
1726063072.504;209;20.00;38070.40
1726063072.554;213;20.00;38834.07
1726063084.788;196;20.00;35685.07
1726063084.990;223;20.00;40798.00
1726063085.190;198;20.00;36076.13
1726063085.240;196;20.00;35700.13
1726063085.290;196;20.00;35700.13
1726063085.340;196;20.00;35700.13
1726063085.390;223;20.00;40679.20
1726063085.440;223;20.00;40679.20
1726063085.491;223;20.00;40679.20
1726063085.540;239;20.00;43698.27
1726063085.591;221;20.00;40315.07
1726063085.640;221;20.00;40315.07
1726063085.691;221;20.00;40315.07
1726063085.741;201;20.00;36533.87
1726063085.790;245;20.00;44849.33
1726063085.840;245;20.00;44849.33
1726063085.892;245;20.00;44849.33
1726063085.941;220;20.00;40258.93
1726063085.992;223;20.00;40719.60
1726063086.041;223;20.00;40719.60
1726063086.092;223;20.00;40719.60
1726063086.143;222;20.00;40576.87
1726063086.194;216;20.00;39421.46
1726063086.243;216;20.00;39421.46
1726063086.292;216;20.00;39421.46
1726063086.343;216;20.00;39421.46
1726063086.394;204;20.00;37236.40
1726063086.444;212;20.00;38632.33
1726063086.493;212;20.00;38632.33
1726063086.544;212;20.00;38632.33
1726063086.593;226;20.00;41316.13
1726063086.644;199;20.00;36294.54
1726063086.693;199;20.00;36294.54
1726063086.744;199;20.00;36294.54
1726063086.793;207;20.00;37801.46
1726063086.844;249;20.00;45643.46
1726063086.894;249;20.00;45643.46
1726063086.943;249;20.00;45643.46
1726063086.994;243;20.00;44426.73
1726063087.044;235;20.00;43054.67
1726063087.094;235;20.00;43054.67
1726063087.144;235;20.00;43054.67
1726063087.194;217;20.00;39516.13
1726063087.244;218;20.00;39788.80
1726063087.294;218;20.00;39788.80
1726063087.344;218;20.00;39788.80
1726063087.394;210;20.00;38322.00
1726063087.444;226;20.00;41263.80
1726063087.494;226;20.00;41263.80
1726063087.544;226;20.00;41263.80
1726063087.594;226;20.00;41263.80
1726063087.644;214;20.00;39054.13
1726063087.694;216;20.00;39451.20
1726063087.744;216;20.00;39451.20
1726063087.793;216;20.00;39451.20
1726063087.844;206;20.00;37572.13
1726063087.893;247;20.00;45309.73
1726063087.944;246;20.00;44951.87
1726063087.994;246;20.00;44951.87
1726063088.044;236;20.00;43190.13
1726063088.093;245;20.00;44864.27
1726063088.144;231;20.00;42275.46
1726063088.194;231;20.00;42275.46
1726063088.244;228;20.00;41701.60
1726063088.294;226;20.00;41384.67
1726063088.343;214;20.00;38955.20
1726063088.393;214;20.00;38955.20
1726063088.444;214;20.00;38955.20
1726063088.493;252;20.00;46143.80
1726063088.544;211;20.00;38422.80
1726063088.594;211;20.00;38422.80
1726063088.645;211;20.00;38422.80
1726063088.693;229;20.00;41901.46
1726063088.744;236;20.00;43150.00
1726063088.794;236;20.00;43150.00
1726063088.844;236;20.00;43150.00
1726063088.893;238;20.00;43528.54
1726063088.944;239;20.00;43746.46
1726063088.994;239;20.00;43746.46
1726063089.044;239;20.00;43746.46
1726063089.094;199;20.00;36272.33
1726063089.144;217;20.00;39518.67
1726063089.195;217;20.00;39518.67
1726063089.244;217;20.00;39518.67
1726063089.295;224;20.00;40906.54
1726063089.345;217;20.00;39580.67
1726063089.394;217;20.00;39580.67
1726063089.445;217;20.00;39580.67
1726063089.495;218;20.00;39807.54
1726063089.545;209;20.00;38163.46
1726063089.595;209;20.00;38163.46
1726063089.645;209;20.00;38163.46
1726063089.695;236;20.00;43190.80
1726063089.745;236;20.00;43190.80
1726063089.795;236;20.00;43190.80
1726063089.845;221;20.00;40279.20
1726063089.895;211;20.00;38479.33
1726063089.945;225;20.00;41171.07
1726063089.995;225;20.00;41171.07
1726063090.045;225;20.00;41171.07
1726063090.095;218;20.00;39742.54
1726063090.145;223;20.00;40662.93
1726063090.196;223;20.00;40662.93
1726063090.245;225;20.00;41039.87
1726063090.297;221;20.00;40365.73
1726063102.540;196;20.00;35695.46
1726063102.591;196;20.00;35695.46
1726063102.641;196;20.00;35695.46
1726063102.741;206;20.00;37595.07
1726063102.791;206;20.00;37595.07
1726063102.843;206;20.00;37595.07
1726063102.892;226;20.00;41368.27
1726063102.943;233;20.00;42628.13
1726063102.993;233;20.00;42628.13
1726063103.043;233;20.00;42628.13
1726063103.093;204;20.00;37186.54
1726063103.143;229;20.00;41880.60
1726063103.193;229;20.00;41880.60
1726063103.243;229;20.00;41880.60
1726063103.293;220;20.00;40240.67
1726063103.343;234;20.00;42785.07
1726063103.393;234;20.00;42785.07
1726063103.443;234;20.00;42785.07
1726063103.493;232;20.00;42439.07
1726063103.543;234;20.00;42849.20
1726063103.593;247;20.00;45214.54
1726063103.644;247;20.00;45214.54
1726063103.694;247;20.00;45214.54
1726063103.744;245;20.00;44862.73
1726063103.794;204;20.00;37124.27
1726063103.844;237;20.00;43415.46
1726063103.894;237;20.00;43415.46
1726063103.945;237;20.00;43415.46
1726063103.995;209;20.00;38064.40
1726063104.045;221;20.00;40287.20
1726063104.095;221;20.00;40287.20
1726063104.145;221;20.00;40287.20
1726063104.195;238;20.00;43612.67
1726063104.245;230;20.00;41985.40
1726063104.295;230;20.00;41985.40
1726063104.347;229;20.00;41911.20
1726063104.397;219;20.00;40052.54
1726063104.446;242;20.00;44324.93
1726063104.496;242;20.00;44324.93
1726063104.546;242;20.00;44324.93
1726063104.597;216;20.00;39510.27
1726063104.647;253;20.00;46392.80
1726063104.697;245;20.00;44839.13
1726063104.747;245;20.00;44839.13
1726063104.798;245;20.00;44839.13
1726063104.847;234;20.00;42857.07
1726063104.899;238;20.00;43624.33
1726063104.948;231;20.00;42214.54
1726063104.998;231;20.00;42214.54
1726063105.048;231;20.00;42214.54
1726063105.099;201;20.00;36691.73
1726063105.149;208;20.00;37884.13
1726063105.199;208;20.00;37884.13
1726063105.248;208;20.00;37884.13
1726063105.298;217;20.00;39671.87
1726063105.348;218;20.00;39765.33
1726063105.398;218;20.00;39765.33
1726063105.449;218;20.00;39765.33
1726063105.499;219;20.00;39944.27
1726063105.549;228;20.00;41600.87
1726063105.599;228;20.00;41600.87
1726063105.650;228;20.00;41600.87
1726063105.700;238;20.00;43574.54
1726063105.749;225;20.00;41139.40
1726063105.799;214;20.00;39004.54
1726063105.850;214;20.00;39004.54
1726063105.900;214;20.00;39004.54
1726063105.950;207;20.00;37699.07
1726063106.000;232;20.00;42464.40
1726063106.050;233;20.00;42696.20
1726063106.099;233;20.00;42696.20
1726063106.151;233;20.00;42696.20
1726063106.201;239;20.00;43791.46
1726063106.251;211;20.00;38437.46
1726063106.301;211;20.00;38437.46
1726063106.350;216;20.00;39382.27
1726063106.401;205;20.00;37369.07
1726063106.451;211;20.00;38476.67
1726063106.500;211;20.00;38476.67
1726063106.553;237;20.00;43264.80
1726063106.603;210;20.00;38358.93
1726063106.652;210;20.00;38358.93
1726063106.703;210;20.00;38358.93
1726063106.752;204;20.00;37120.93
1726063106.803;223;20.00;40666.67
1726063106.853;222;20.00;40545.73
1726063106.903;222;20.00;40545.73
1726063106.953;234;20.00;42826.87
1726063107.002;245;20.00;44778.80
1726063107.053;203;20.00;36900.80
1726063107.103;203;20.00;36900.80
1726063107.153;203;20.00;36900.80
1726063107.203;220;20.00;40140.87
1726063107.252;223;20.00;40652.80
1726063107.303;223;20.00;40652.80
1726063107.352;223;20.00;40652.80
1726063107.403;218;20.00;39721.54
1726063107.453;209;20.00;38072.00
1726063107.504;209;20.00;38072.00
1726063107.553;209;20.00;38072.00
1726063107.603;220;20.00;40185.40
1726063107.654;208;20.00;37901.27
1726063107.703;208;20.00;37901.27
1726063107.753;235;20.00;42903.73
1726063107.803;230;20.00;41959.87
1726063107.854;238;20.00;43614.00
1726063107.904;238;20.00;43614.00
1726063107.955;238;20.00;43614.00
1726063108.004;210;20.00;38218.80
