UnixTimestamp;Microseconds;MilliAmpere;BaseValue
1725546769.363;500;1.00
1725546769.410;500;1.00
1725546769.461;500;1.00
1725546769.510;500;1.00
1725546769.561;500;1.00
1725546769.610;500;1.00
1725546769.660;500;1.00
1725546769.710;500;1.00
1725546769.760;500;1.00
1725546769.810;500;1.00
1725546769.861;500;1.00
1725546769.910;500;1.00
1725546769.960;500;1.00
1725546770.011;500;1.00
1725546770.061;500;1.00
1725546770.111;500;1.00
1725546770.162;500;1.00
1725546770.212;500;1.00
1725546770.261;500;1.00
1725546770.311;500;1.00
1725546770.361;500;1.00
1725546770.411;500;1.00
1725546770.462;500;1.00
1725546770.512;500;1.00
1725546770.561;500;1.00
1725546770.611;500;1.00
1725546770.662;500;1.00
1725546770.712;500;1.00
1725546770.762;500;1.00
1725546779.261;1;40.00
1725546779.311;1;40.00
1725546779.362;1;40.00
1725546779.411;1;40.00
1725546779.462;1;40.00
1725546779.511;1;40.00
1725546779.562;1;40.00
1725546779.612;1;40.00
1725546779.662;1;40.00
1725546779.712;1;40.00
1725546779.763;1;40.00
1725546779.812;1;40.00
1725546779.862;1;40.00
1725546779.912;1;40.00
1725546779.963;1;40.00
1725546780.013;1;40.00
1725546780.062;1;40.00
1725546780.112;1;40.00
1725546780.163;1;40.00
1725546780.212;1;40.00
1725546780.264;1;40.00
1725547137.580;46;10.00;38050.13
1725547137.630;46;10.00;38050.13
1725547137.680;46;10.00;38050.13
1725547137.780;44;10.00;38514.80
1725547137.831;44;10.00;38514.80
1725547137.881;44;10.00;38514.80
1725547137.930;52;10.00;36015.33
1725547137.980;52;10.00;35865.46
1725547138.030;52;10.00;35865.46
1725547138.080;49;10.00;36914.67
1725547138.130;54;10.00;35385.07
1725547138.280;45;10.00;38162.67
1725547138.681;47;10.00;37633.67
1725547138.731;47;10.00;37633.67
1725547138.780;47;10.00;37633.67
1725547138.881;41;10.00;39628.13
1725547138.931;41;10.00;39628.13
1725547138.981;41;10.00;39628.13
1725547139.031;39;10.00;40359.73
1725547139.081;51;10.00;36218.93
1725547139.131;51;10.00;36218.93
1725547139.181;51;10.00;36218.93
1725547139.281;55;10.00;35019.40
1725547139.331;55;10.00;35019.40
1725547139.381;55;10.00;35019.40
1725547139.431;49;10.00;36994.27
1725547139.481;46;10.00;37912.00
1725547139.531;46;10.00;37912.00
1725547139.581;46;10.00;37912.00
1725547139.631;45;10.00;38292.67
1725547139.681;35;10.00;41582.33
1725547139.731;35;10.00;41582.33
1725547139.781;35;10.00;41582.33
1725547139.831;44;10.00;38656.80
1725547140.031;51;10.00;36324.54
1725547140.081;52;10.00;35822.20
1725547140.131;52;10.00;35822.20
1725547140.181;52;10.00;35822.20
1725547140.231;52;10.00;35918.54
1725547140.281;51;10.00;36162.13
1725547140.331;51;10.00;36162.13
1725547140.381;51;10.00;36162.13
1725547140.431;44;10.00;38606.07
1725547140.632;54;10.00;35241.33
1725547140.682;52;10.00;35760.13
1725547140.732;52;10.00;35760.13
1725547140.782;52;10.00;35760.13
1725547140.832;41;10.00;39520.67
1725547140.882;37;10.00;40897.33
1725547140.932;37;10.00;40897.33
1725547140.982;37;10.00;40897.33
1725547141.082;47;10.00;37597.07
1725547141.133;47;10.00;37597.07
1725547141.183;47;10.00;37597.07
1725547141.232;54;10.00;35125.20
1725547141.434;54;10.00;35413.60
1725547141.484;51;10.00;36181.33
1725547141.534;51;10.00;36181.33
1725547141.584;51;10.00;36181.33
1725547141.634;34;10.00;41862.40
1725547141.684;39;10.00;40239.20
1725547141.734;39;10.00;40239.20
1725547141.784;39;10.00;40239.20
1725547141.834;42;10.00;39330.93
1725547142.035;54;10.00;35202.73
1725547142.084;54;10.00;35222.40
1725547142.135;54;10.00;35222.40
1725547142.185;54;10.00;35222.40
1725547142.234;53;10.00;35606.54
1725547154.280;54;10.00;35291.07
1725547154.330;54;10.00;35291.07
1725547154.380;54;10.00;35291.07
1725547154.430;54;10.00;35291.07
1725547154.480;35;10.00;41398.00
1725547154.530;38;10.00;40433.07
1725547154.579;38;10.00;40433.07
1725547154.630;38;10.00;40433.07
1725547154.680;42;10.00;39267.27
1725547154.730;42;10.00;39329.93
1725547154.779;42;10.00;39329.93
1725547154.830;44;10.00;38712.93
1725547154.880;55;10.00;35085.33
1725547154.930;55;10.00;35085.33
1725547154.980;55;10.00;35085.33
1725547155.030;52;10.00;35838.27
1725547155.080;37;10.00;40919.33
1725547155.131;37;10.00;40919.33
1725547155.181;37;10.00;40919.33
1725547155.231;37;10.00;40919.33
1725547155.331;52;10.00;35952.93
1725547155.381;52;10.00;35952.93
1725547155.431;52;10.00;35952.93
1725547155.532;41;10.00;39647.40
1725547155.582;41;10.00;39647.40
1725547155.632;41;10.00;39647.40
1725547155.681;49;10.00;36783.46
1725547155.732;49;10.00;36783.46
1725547155.782;49;10.00;36783.46
1725547155.832;54;10.00;35292.40
1725547155.882;50;10.00;36439.20
1725547155.933;50;10.00;36439.20
1725547155.983;50;10.00;36439.20
1725547156.235;52;10.00;35865.33
1725547156.485;53;10.00;35648.67
1725547156.535;53;10.00;35648.67
1725547156.584;53;10.00;35648.67
1725547156.685;52;10.00;36012.54
1725547156.735;52;10.00;36012.54
1725547156.787;52;10.00;36012.54
1725547156.836;46;10.00;37838.80
1725547156.886;45;10.00;38171.07
1725547156.936;45;10.00;38171.07
1725547156.987;45;10.00;38171.07
1725547157.037;45;10.00;38171.07
1725547157.087;50;10.00;36420.60
1725547157.137;53;10.00;35730.20
1725547157.187;53;10.00;35730.20
1725547157.237;53;10.00;35730.20
1725547157.287;51;10.00;36189.40
1725547157.537;55;10.00;35077.67
1725547157.587;55;10.00;35077.67
1725547157.636;55;10.00;35077.67
1725547157.688;51;10.00;36159.33
1725547157.887;47;10.00;37736.20
1725547158.088;51;10.00;36249.87
1725547158.140;51;10.00;36249.87
1725547158.190;51;10.00;36249.87
1725547158.240;47;10.00;37547.40
1725547158.290;47;10.00;37547.40
1725547158.340;47;10.00;37547.40
1725547158.396;52;10.00;35900.54
1725547158.594;50;10.00;36706.13
1725547158.644;54;10.00;35232.67
1725547158.694;54;10.00;35232.67
1725547158.744;52;10.00;36028.13
1725547158.794;50;10.00;36715.33
1725547158.844;50;10.00;36715.33
1725547158.895;50;10.00;36715.33
1725547158.945;50;10.00;36715.33
1725547159.395;51;10.00;36183.27
1725547171.574;54;10.00;35154.13
1725547171.625;48;10.00;37276.00
1725547171.675;48;10.00;37276.00
1725547171.725;48;10.00;37276.00
1725547171.782;50;10.00;36638.27
1725547171.830;45;10.00;38115.46
1725547171.880;45;10.00;38115.46
1725547171.930;45;10.00;38115.46
1725547171.979;53;10.00;35559.20
1725547172.031;35;10.00;41438.13
1725547172.081;35;10.00;41438.13
1725547172.131;35;10.00;41438.13
1725547172.181;50;10.00;36661.20
1725547172.231;55;10.00;35077.40
1725547172.282;55;10.00;35077.40
1725547172.332;54;10.00;35298.54
1725547172.382;53;10.00;35650.00
1725547172.431;52;10.00;36008.80
1725547172.482;52;10.00;36008.80
1725547172.532;51;10.00;36125.20
1725547172.582;41;10.00;39655.46
1725547172.631;41;10.00;39540.00
1725547172.682;41;10.00;39540.00
1725547172.732;39;10.00;40401.67
1725547172.781;55;10.00;34973.87
1725547172.832;54;10.00;35280.54
1725547172.882;54;10.00;35280.54
1725547172.932;54;10.00;35280.54
1725547172.982;50;10.00;36530.80
1725547173.031;43;10.00;38946.80
1725547173.083;43;10.00;38946.80
1725547173.132;43;10.00;38946.80
1725547173.183;48;10.00;37173.00
1725547173.233;53;10.00;35450.80
1725547173.283;53;10.00;35450.80
1725547173.333;53;10.00;35450.80
1725547173.383;48;10.00;37140.93
1725547173.433;48;10.00;37366.27
1725547173.483;48;10.00;37366.27
1725547173.533;48;10.00;37366.27
1725547173.583;45;10.00;38386.67
1725547173.633;45;10.00;38290.93
1725547173.683;45;10.00;38290.93
1725547173.734;34;10.00;41894.80
1725547173.783;50;10.00;36609.73
1725547173.833;36;10.00;41144.00
1725547173.883;36;10.00;41144.00
1725547173.933;38;10.00;40723.33
1725547173.983;50;10.00;36698.73
1725547174.033;51;10.00;36206.00
1725547174.083;51;10.00;36206.00
1725547174.183;43;10.00;39026.07
1725547174.233;49;10.00;37018.00
1725547174.284;49;10.00;37018.00
1725547174.383;52;10.00;35896.80
1725547174.433;49;10.00;36902.40
1725547174.483;49;10.00;36902.40
1725547174.533;49;10.00;36902.40
1725547174.584;52;10.00;35838.60
1725547174.634;42;10.00;39329.93
1725547174.684;42;10.00;39329.93
1725547174.735;42;10.00;39329.93
1725547174.785;47;10.00;37618.27
1725547174.836;47;10.00;37737.20
1725547174.886;47;10.00;37737.20
1725547174.935;41;10.00;39592.80
1725547174.986;53;10.00;35541.87
1725547175.035;54;10.00;35369.46
1725547175.086;54;10.00;35369.46
1725547175.135;54;10.00;35369.46
1725547175.187;46;10.00;37938.40
1725547175.236;55;10.00;35066.13
1725547175.286;55;10.00;35066.13
1725547175.336;55;10.00;35066.13
1725547175.437;51;10.00;36277.87
1725547175.487;51;10.00;36277.87
1725547175.537;51;10.00;36277.87
1725547175.636;52;10.00;35925.93
1725547175.687;52;10.00;35925.93
1725547175.737;52;10.00;35925.93
1725547175.787;51;10.00;36208.20
1725547175.836;43;10.00;38755.33
1725547175.887;43;10.00;38755.33
1725547175.938;43;10.00;38755.33
1725547175.988;54;10.00;35342.80
1725547176.038;50;10.00;36577.73
1725547176.089;50;10.00;36577.73
1725547176.138;50;10.00;36577.73
1725547176.188;51;10.00;36371.73
1725547176.238;41;10.00;39650.00
1725547176.289;41;10.00;39650.00
1725547176.338;41;10.00;39650.00
1725547176.390;45;10.00;38119.33
1725547176.440;46;10.00;37904.46
1725547176.489;46;10.00;37904.46
1725547176.540;46;10.00;37904.46
1725547176.639;50;10.00;36748.93
1725547176.689;50;10.00;36748.93
1725547176.740;50;10.00;36748.93
1725547176.789;46;10.00;38059.60
1725547288.157;350;14.80;36520.13
1725547288.207;350;14.80;36520.13
1725547288.257;350;14.80;36520.13
1725547288.309;350;14.30;35279.46
1725547288.358;350;17.76;43939.73
1725547288.408;350;16.12;39839.80
1725547288.458;350;16.12;39839.80
1725547288.508;350;16.12;39839.80
1725547288.560;350;17.53;43350.07
1725547288.609;350;16.01;39547.13
1725547288.660;350;16.01;39547.13
1725547288.710;350;16.01;39547.13
1725547288.760;350;16.77;41456.33
1725547288.960;350;16.34;40384.13
1725547289.009;350;14.56;35928.67
1725547289.060;350;14.56;35928.67
1725547289.110;350;14.56;35928.67
1725547289.160;350;16.74;41377.87
1725547289.209;350;16.85;41657.60
1725547289.260;350;16.85;41657.60
1725547289.310;350;16.85;41657.60
1725547289.359;350;14.50;35764.40
1725547289.410;350;15.77;38949.07
1725547289.459;350;16.49;40758.60
1725547289.510;350;16.49;40758.60
1725547289.559;350;16.49;40758.60
1725547289.609;350;15.45;38147.60
1725547289.959;350;15.58;38487.80
1725547290.010;350;14.44;35629.73
1725547290.060;350;14.44;35629.73
1725547290.110;350;14.44;35629.73
1725547290.159;350;14.41;35558.73
1725547290.210;350;14.41;35558.73
1725547290.260;350;14.41;35558.73
1725547290.310;350;14.41;35558.73
1725547290.359;350;16.45;40645.73
1725547290.410;350;16.82;41593.20
1725547290.460;350;16.82;41593.20
1725547290.510;350;16.82;41593.20
1725547290.610;350;16.17;39950.20
1725547290.659;350;16.17;39950.20
1725547290.710;350;16.17;39950.20
1725547290.760;350;16.80;41519.93
1725547290.810;350;17.08;42238.00
1725547290.860;350;15.15;37408.46
1725547290.909;350;15.15;37408.46
1725547290.962;350;15.15;37408.46
1725547291.016;350;15.26;37671.46
1725547291.063;350;15.27;37703.33
1725547291.114;350;15.27;37703.33
1725547291.164;350;15.27;37703.33
1725547291.214;350;15.27;37703.33
1725547291.264;350;17.24;42637.33
1725547291.313;350;15.02;37065.00
1725547291.364;350;15.02;37065.00
1725547291.413;350;15.02;37065.00
1725547291.464;350;15.86;39173.60
1725547291.513;350;16.68;41218.73
1725547291.564;350;16.49;40752.07
1725547291.613;350;16.49;40752.07
1725547291.663;350;16.49;40752.07
1725547291.763;350;14.39;35500.93
1725547291.815;350;14.39;35500.93
1725547291.864;350;14.39;35500.93
1725547292.064;350;14.41;35540.40
1725547292.114;350;14.40;35517.33
1725547292.266;350;14.28;35228.13
1725547292.316;350;14.84;36615.73
1725547292.365;350;14.31;35287.54
1725547292.417;350;14.31;35287.54
1725547292.467;350;14.31;35287.54
1725547292.517;350;14.87;36703.46
1725547292.566;350;17.15;42420.00
1725547292.616;350;17.15;42420.00
1725547292.666;350;17.15;42420.00
1725547292.718;350;17.54;43382.00
1725547293.067;350;14.73;36343.33
1725547293.269;350;14.62;36078.54
1725547293.319;350;15.42;38085.33
1725547293.369;350;15.42;38085.33
1725547293.420;350;15.42;38085.33
1725547293.469;350;14.44;35612.13
1725547293.520;350;16.84;41630.73
1725547305.568;350;14.81;36547.27
1725547305.618;350;14.81;36547.07
1725547305.668;350;14.81;36547.07
1725547305.718;350;14.43;35594.80
1725547305.769;350;14.63;36088.40
1725547305.818;350;14.63;36088.40
1725547305.868;350;14.63;36088.40
1725547305.918;350;16.59;40996.40
1725547305.968;350;16.75;41406.40
1725547306.018;350;16.75;41406.40
1725547306.068;350;16.75;41406.40
1725547306.119;350;16.75;41402.20
1725547306.168;350;15.88;39238.93
1725547306.219;350;15.88;39238.93
1725547306.268;350;16.44;40631.27
1725547306.318;350;14.53;35840.93
1725547306.368;350;15.44;38118.46
1725547306.418;350;15.44;38118.46
1725547306.470;350;15.44;38118.46
1725547306.520;350;15.33;37859.67
1725547306.570;350;16.92;41821.00
1725547306.620;350;16.92;41821.00
1725547306.669;350;16.92;41821.00
1725547306.719;350;16.65;41159.20
1725547306.770;350;16.48;40731.20
1725547306.820;350;16.48;40731.20
1725547306.869;350;16.48;40731.20
1725547306.920;350;14.19;35007.54
1725547306.970;350;14.24;35124.73
1725547307.020;350;14.24;35124.73
1725547307.070;350;14.24;35124.73
1725547307.120;350;14.66;36177.07
1725547307.170;350;17.29;42751.87
1725547307.221;350;17.29;42751.87
1725547307.271;350;17.29;42751.87
1725547307.321;350;15.38;37982.80
1725547307.370;350;17.59;43497.87
1725547307.421;350;17.59;43497.87
1725547307.471;350;17.59;43497.87
1725547307.521;350;14.72;36326.27
1725547307.570;350;15.02;37077.87
1725547307.621;350;15.02;37077.87
1725547307.670;350;15.02;37077.87
1725547307.721;350;16.87;41709.07
1725547307.771;350;16.53;40867.73
1725547307.821;350;16.53;40867.73
1725547307.871;350;16.53;40867.73
1725547307.921;350;17.18;42477.33
1725547307.970;350;17.18;42477.33
1725547308.021;350;17.18;42477.33
1725547308.071;350;14.42;35569.20
1725547308.121;350;15.11;37294.87
1725547308.170;350;15.45;38147.67
1725547308.220;350;15.45;38147.67
1725547308.271;350;17.06;42183.33
1725547308.321;350;14.52;35826.73
1725547308.520;350;14.58;35984.60
1725547308.771;350;14.21;35048.67
1725547308.821;350;14.21;35048.67
1725547308.870;350;14.21;35048.67
1725547308.922;350;14.22;35064.80
1725547308.971;350;14.60;36034.40
1725547309.021;350;14.60;36034.40
1725547309.071;350;14.60;36034.40
1725547309.121;350;15.66;38667.46
1725547309.171;350;16.49;40754.67
1725547309.222;350;16.49;40754.67
1725547309.272;350;16.49;40754.67
1725547309.322;350;14.57;35953.33
1725547309.371;350;16.69;41245.60
1725547309.422;350;16.69;41245.60
1725547309.471;350;16.69;41245.60
1725547309.522;350;14.21;35045.60
1725547309.572;350;17.39;42999.33
1725547309.622;350;17.39;42999.33
1725547309.672;350;15.60;38521.73
1725547309.722;350;14.22;35070.00
1725547309.771;350;14.46;35661.20
1725547309.822;350;14.46;35661.20
1725547309.872;350;17.25;42662.13
1725547309.921;350;16.06;39667.46
1725547309.972;350;15.82;39089.87
1725547310.022;350;15.82;39089.87
1725547310.071;350;16.41;40554.40
1725547310.122;350;14.37;35445.46
1725547310.171;350;15.91;39304.54
1725547310.222;350;15.91;39304.54
1725547310.272;350;15.81;39049.20
1725547310.322;350;16.26;40167.80
1725547310.372;350;15.69;38757.60
1725547310.422;350;15.69;38757.60
1725547310.472;350;15.69;38757.60
1725547310.522;350;16.75;41408.67
1725547310.572;350;15.50;38273.46
1725547310.622;350;15.50;38273.46
1725547310.672;350;15.50;38273.46
1725547310.721;350;15.04;37112.33
1725547323.177;350;14.20;35018.87
1725547323.227;350;14.20;35018.87
1725547323.277;350;14.20;35018.87
1725547323.376;350;15.15;37402.07
1725547323.428;350;15.15;37402.07
1725547323.477;350;15.15;37402.07
1725547323.527;350;16.72;41319.87
1725547323.727;350;16.83;41614.40
1725547323.777;350;14.56;35920.67
1725547323.827;350;14.56;35920.67
1725547323.878;350;14.54;35876.27
1725547323.980;350;14.35;35401.87
1725547324.031;350;14.35;35401.87
1725547324.181;350;15.47;38193.07
1725547324.230;350;15.47;38193.07
1725547324.280;350;15.47;38193.07
1725547324.332;350;15.06;37173.00
1725547324.532;350;14.46;35685.00
1725547324.932;350;14.39;35500.33
1725547325.333;350;14.32;35309.87
1725547325.534;350;16.72;41326.73
1725547325.734;350;14.29;35238.27
1725547325.784;350;14.16;34910.27
1725547325.834;350;14.16;34910.27
1725547325.884;350;15.20;37521.73
1725547325.934;350;17.26;42689.33
1725547325.984;350;17.26;42689.33
1725547326.034;350;17.26;42689.33
1725547326.084;350;17.40;43023.07
1725547326.134;350;16.62;41072.93
1725547326.185;350;16.49;40762.80
1725547326.235;350;16.49;40762.80
1725547326.285;350;16.69;41258.00
1725547326.335;350;16.65;41150.80
1725547326.385;350;16.65;41150.80
1725547326.436;350;16.65;41150.80
1725547326.485;350;16.46;40690.60
1725547326.536;350;16.89;41754.54
1725547326.585;350;16.89;41754.54
1725547326.636;350;16.89;41754.54
1725547326.686;350;16.92;41823.73
1725547326.736;350;14.51;35794.93
1725547326.937;350;16.68;41230.73
1725547327.137;350;16.05;39656.67
1725547327.187;350;14.45;35659.33
1725547327.236;350;14.45;35659.33
1725547327.288;350;14.45;35659.33
1725547327.338;350;14.26;35173.73
1725547327.387;350;16.45;40657.80
1725547327.437;350;16.45;40657.80
1725547327.487;350;16.45;40657.80
1725547327.537;350;17.65;43670.87
1725547327.588;350;16.51;40797.20
1725547327.637;350;16.51;40797.20
1725547327.688;350;16.51;40797.20
1725547327.738;350;15.80;39036.46
1725547327.788;350;14.81;36556.80
1725547327.838;350;14.81;36556.80
1725547327.887;350;14.81;36556.80
1725547327.938;350;17.12;42337.33
1725547327.987;350;16.94;41871.46
1725547328.037;350;16.94;41871.46
1725547328.088;350;16.94;41871.46
1725547328.138;350;16.73;41351.20
1725547328.188;350;16.75;41408.33
1725547328.238;350;16.75;41408.33
1725547328.287;350;16.75;41408.33
1725547328.338;350;17.45;43150.54
1725547448.332;51;30.00;36182.13
1725547448.382;51;30.00;36182.13
1725547448.433;51;30.00;36182.13
1725547448.533;43;30.00;38786.27
1725547448.584;43;30.00;38786.27
1725547448.634;43;30.00;38786.27
1725547448.684;46;30.00;37850.00
1725547448.884;46;30.00;37777.33
1725547449.134;54;30.00;35347.00
1725547449.185;54;30.00;35347.00
1725547449.235;54;30.00;35347.00
1725547449.285;53;30.00;35472.54
1725547449.336;46;30.00;37982.40
1725547449.386;46;30.00;37982.40
1725547449.436;46;30.00;37982.40
1725547449.486;47;30.00;37707.60
1725547449.535;43;30.00;39029.93
1725547449.586;43;30.00;39029.93
1725547449.636;43;30.00;39029.93
1725547449.686;43;30.00;39029.93
1725547449.736;44;30.00;38416.00
1725547449.786;48;30.00;37153.33
1725547449.837;48;30.00;37153.33
1725547449.887;44;30.00;38683.54
1725547449.937;52;30.00;35864.27
1725547449.986;52;30.00;35864.27
1725547450.036;52;30.00;35864.27
1725547450.086;54;30.00;35274.80
1725547450.136;36;30.00;41224.40
1725547450.187;36;30.00;41224.40
1725547450.237;36;30.00;41224.40
1725547450.288;44;30.00;38621.40
1725547450.338;54;30.00;35178.00
1725547450.388;54;30.00;35178.00
1725547450.438;54;30.00;35178.00
1725547450.488;42;30.00;39190.54
1725547450.538;48;30.00;37383.46
1725547450.589;48;30.00;37383.46
1725547450.638;48;30.00;37383.46
1725547450.688;47;30.00;37670.13
1725547450.738;48;30.00;37189.27
1725547450.789;48;30.00;37189.27
1725547450.839;48;30.00;37189.27
1725547450.889;48;30.00;37189.27
1725547450.939;34;30.00;41895.13
1725547450.989;48;30.00;37388.20
1725547451.041;48;30.00;37388.20
1725547451.090;55;30.00;35067.07
1725547451.140;35;30.00;41537.33
1725547451.190;35;30.00;41537.33
1725547451.241;35;30.00;41537.33
1725547451.290;48;30.00;37250.67
1725547451.340;41;30.00;39455.00
1725547451.391;41;30.00;39455.00
1725547451.440;41;30.00;39455.00
1725547451.491;55;30.00;35002.13
1725547451.541;49;30.00;36863.46
1725547451.590;49;30.00;36863.46
1725547451.641;49;30.00;36863.46
1725547451.740;31;30.00;42911.07
1725547451.791;31;30.00;42911.07
1725547451.841;31;30.00;42911.07
1725547451.890;31;30.00;42911.07
1725547451.940;52;30.00;35863.54
1725547451.991;52;30.00;35863.54
1725547452.040;52;30.00;35863.54
1725547452.141;44;30.00;38448.67
1725547452.191;44;30.00;38448.67
1725547452.242;44;30.00;38448.67
1725547452.292;41;30.00;39700.27
1725547452.342;35;30.00;41447.93
1725547452.392;35;30.00;41447.93
1725547452.442;35;30.00;41447.93
1725547452.493;35;30.00;41423.73
1725547452.744;52;30.00;35993.46
1725547452.794;51;30.00;36205.13
1725547452.843;51;30.00;36205.13
1725547452.894;51;30.00;36205.13
1725547452.994;31;30.00;42925.40
1725547453.044;40;30.00;39837.33
1725547453.095;40;30.00;39837.33
1725547453.144;48;30.00;37301.07
1725547453.196;45;30.00;38318.87
1725547465.378;55;30.00;35069.33
1725547465.428;55;30.00;35069.33
1725547465.678;55;30.00;35020.27
1725547465.878;53;30.00;35701.20
1725547465.928;49;30.00;36870.93
1725547465.978;49;30.00;36870.93
1725547466.028;49;30.00;36870.93
1725547466.078;35;30.00;41432.67
1725547466.128;34;30.00;41862.67
1725547466.178;34;30.00;41862.67
1725547466.228;34;30.00;41862.67
1725547466.329;38;30.00;40679.07
1725547466.379;38;30.00;40679.07
1725547466.429;38;30.00;40679.07
1725547466.529;48;30.00;37224.54
1725547466.579;48;30.00;37224.54
1725547466.629;48;30.00;37224.54
1725547466.680;53;30.00;35500.60
1725547466.729;49;30.00;36820.00
1725547466.780;48;30.00;37402.13
1725547466.829;48;30.00;37402.13
1725547466.880;48;30.00;37402.13
1725547466.930;53;30.00;35563.40
1725547466.980;48;30.00;37320.27
1725547467.029;48;30.00;37320.27
1725547467.080;48;30.00;37320.27
1725547467.130;45;30.00;38369.46
1725547467.179;47;30.00;37493.20
1725547467.230;47;30.00;37493.20
1725547467.279;47;30.00;37493.20
1725547467.329;47;30.00;37493.20
1725547467.383;41;30.00;39623.46
1725547467.433;45;30.00;38304.27
1725547467.832;55;30.00;34922.67
1725547468.034;53;30.00;35508.00
1725547468.084;55;30.00;35006.00
1725547468.134;55;30.00;35006.00
1725547468.184;55;30.00;35006.00
1725547468.234;35;30.00;41411.46
1725547468.284;54;30.00;35405.33
1725547468.333;54;30.00;35405.33
1725547468.384;54;30.00;35405.33
1725547468.434;45;30.00;38346.00
1725547468.485;55;30.00;35088.93
1725547468.534;55;30.00;35088.93
1725547468.585;53;30.00;35457.20
1725547468.634;53;30.00;35640.80
1725547468.684;53;30.00;35511.33
1725547468.735;53;30.00;35511.33
1725547468.785;53;30.00;35511.33
1725547468.835;42;30.00;39202.80
1725547468.885;35;30.00;41442.80
1725547468.935;35;30.00;41442.80
1725547468.985;46;30.00;38074.00
1725547469.034;55;30.00;34969.20
1725547469.085;44;30.00;38600.80
1725547469.135;44;30.00;38600.80
1725547469.185;44;30.00;38600.80
1725547469.287;50;30.00;36677.20
1725547469.336;50;30.00;36677.20
1725547469.386;50;30.00;36677.20
1725547469.436;52;30.00;36066.93
1725547469.637;36;30.00;41327.73
1725547469.688;55;30.00;34978.67
1725547469.737;55;30.00;34978.67
1725547469.788;55;30.00;34978.67
1725547469.987;54;30.00;35346.00
1725547482.582;54;30.00;35197.46
1725547482.632;54;30.00;35368.40
1725547482.683;54;30.00;35368.40
1725547482.733;54;30.00;35368.40
1725547482.782;34;30.00;42039.07
1725547482.833;51;30.00;36161.07
1725547482.882;52;30.00;35832.93
1725547482.933;52;30.00;35832.93
1725547482.982;37;30.00;40784.46
1725547483.083;50;30.00;36542.67
1725547483.133;50;30.00;36542.67
1725547483.183;50;30.00;36542.67
1725547483.283;42;30.00;39263.46
1725547483.333;42;30.00;39263.46
1725547483.383;44;30.00;38469.07
1725547483.484;55;30.00;35037.67
1725547483.533;55;30.00;35037.67
1725547483.583;55;30.00;35037.67
1725547483.633;54;30.00;35235.46
1725547483.834;54;30.00;35396.80
1725547483.885;52;30.00;36029.60
1725547483.935;52;30.00;36029.60
1725547483.985;52;30.00;36029.60
1725547484.035;54;30.00;35279.46
1725547484.086;33;30.00;42276.80
1725547484.136;33;30.00;42276.80
1725547484.186;33;30.00;42276.80
1725547484.236;35;30.00;41485.87
1725547484.287;38;30.00;40588.33
1725547484.336;38;30.00;40588.33
1725547484.388;38;30.00;40588.33
1725547484.436;39;30.00;40111.67
1725547484.487;40;30.00;39825.73
1725547484.537;54;30.00;35227.80
1725547484.587;54;30.00;35227.80
1725547484.637;54;30.00;35227.80
1725547484.687;46;30.00;37973.87
1725547484.737;46;30.00;38056.27
1725547484.787;46;30.00;38056.27
1725547484.837;49;30.00;36999.46
1725547484.887;55;30.00;34952.27
1725547484.937;55;30.00;34952.27
1725547484.988;55;30.00;34952.27
1725547485.087;43;30.00;38990.80
1725547485.137;43;30.00;38990.80
1725547485.187;40;30.00;39777.60
1725547485.288;49;30.00;36988.40
1725547485.338;49;30.00;36988.40
1725547485.388;49;30.00;36871.87
1725547485.489;53;30.00;35559.87
1725547485.539;53;30.00;35559.87
1725547485.590;53;30.00;35608.60
1725547485.991;54;30.00;35114.80
1725547486.041;54;30.00;35292.40
1725547486.191;53;30.00;35565.20
1725547486.241;50;30.00;36438.54
1725547486.291;54;30.00;35320.93
1725547486.341;54;30.00;35320.93
1725547486.391;54;30.00;35320.93
1725547486.441;50;30.00;36441.33
1725547486.491;33;30.00;42275.46
1725547486.541;33;30.00;42275.46
1725547486.591;43;30.00;38763.73
1725547486.692;54;30.00;35357.67
1725547486.741;54;30.00;35357.67
1725547486.792;55;30.00;34944.33
1725547486.892;47;30.00;37689.73
1725547486.942;47;30.00;37689.73
1725547486.992;54;30.00;35406.80
1725547487.043;51;30.00;36235.07
1725547487.093;54;30.00;35288.46
1725547487.143;54;30.00;35288.46
1725547487.194;54;30.00;35288.46
1725547487.243;51;30.00;36189.27
1725547487.295;55;30.00;35051.60
1725547487.344;55;30.00;35051.60
1725547487.394;55;30.00;35051.60
1725547487.444;52;30.00;35880.40
1725547487.496;48;30.00;37350.00
1725547487.545;48;30.00;37350.00
1725547487.595;48;30.00;37350.00
1725547487.645;55;30.00;35010.93
1725547600.417;500;15.62;38573.40
1725547600.467;500;15.62;38573.40
1725547600.517;500;15.62;38573.40
1725547600.567;500;14.42;35573.40
1725547600.618;500;14.23;35095.60
1725547600.668;500;14.23;35095.60
1725547600.718;500;14.23;35095.60
1725547600.769;500;15.94;39383.00
1725547600.819;500;14.80;36527.93
1725547600.869;500;14.80;36527.93
1725547600.919;500;14.86;36681.40
1725547600.969;500;16.18;39979.54
1725547601.019;500;15.42;38075.07
1725547601.069;500;15.42;38075.07
1725547601.119;500;15.56;38423.46
1725547601.169;500;16.14;39876.13
1725547601.219;500;16.36;40422.93
1725547601.269;500;16.36;40422.93
1725547601.319;500;16.03;39600.40
1725547601.369;500;16.45;40647.13
1725547601.419;500;15.52;38337.07
1725547601.469;500;15.52;38337.07
1725547601.520;500;15.52;38337.07
1725547601.570;500;16.53;40850.00
1725547601.621;500;16.94;41874.40
1725547601.671;500;16.94;41874.40
1725547601.720;500;16.94;41874.40
1725547601.770;500;16.40;40526.46
1725547601.821;500;14.21;35037.27
1725547601.870;500;14.21;35037.27
1725547601.921;500;14.43;35593.80
1725547601.971;500;16.72;41333.73
1725547602.121;500;15.05;37152.20
1725547602.171;500;15.61;38559.40
1725547602.220;500;14.83;36608.60
1725547602.271;500;14.83;36608.60
1725547602.320;500;17.12;42328.00
1725547602.371;500;16.15;39903.46
1725547602.421;500;16.15;39903.46
1725547602.471;500;16.15;39903.46
1725547602.520;500;16.40;40532.40
1725547602.571;500;16.36;40422.13
1725547602.621;500;16.36;40422.13
1725547602.671;500;16.36;40422.13
1725547602.720;500;16.53;40862.54
1725547602.771;500;16.43;40597.00
1725547602.821;500;16.76;41419.33
1725547602.871;500;16.76;41419.33
1725547602.920;500;16.76;41419.33
1725547602.971;500;16.66;41188.87
1725547603.021;500;16.52;40823.07
1725547603.070;500;16.52;40823.07
1725547603.121;500;16.52;40823.07
1725547603.170;500;16.40;40517.67
1725547603.221;500;15.61;38558.20
1725547603.270;500;15.65;38659.67
1725547603.320;500;15.65;38659.67
1725547603.370;500;16.33;40354.80
1725547603.421;500;16.68;41221.00
1725547603.471;500;16.68;41221.00
1725547603.521;500;16.68;41221.00
1725547603.571;500;16.70;41278.80
1725547603.621;500;16.87;41715.46
1725547603.670;500;16.87;41715.46
1725547603.721;500;16.87;41715.46
1725547603.771;500;16.56;40926.67
1725547603.820;500;17.05;42151.33
1725547603.871;500;17.05;42151.33
1725547603.921;500;17.05;42151.33
1725547603.970;500;16.53;40860.60
1725547604.020;500;14.54;35881.60
1725547604.070;500;14.54;35881.60
1725547604.121;500;14.54;35881.60
1725547604.171;500;14.28;35212.40
1725547604.221;500;16.41;40562.73
1725547604.271;500;16.41;40562.73
1725547604.321;500;16.41;40562.73
1725547604.371;500;15.97;39453.20
1725547604.422;500;14.60;36018.67
1725547604.471;500;14.60;36018.67
1725547604.522;500;14.60;36018.67
1725547604.572;500;15.26;37687.73
1725547604.622;500;17.27;42709.60
1725547604.672;500;17.27;42709.60
1725547604.722;500;17.27;42709.60
1725547604.772;500;16.50;40771.46
1725547604.822;500;17.35;42899.73
1725547604.873;500;17.35;42899.73
1725547604.923;500;17.35;42899.73
1725547604.973;500;15.13;37337.73
1725547605.023;500;16.84;41629.73
1725547605.073;500;16.84;41629.73
1725547605.123;500;16.84;41629.73
1725547605.173;500;17.08;42221.60
1725547605.223;500;17.03;42095.20
1725547605.273;500;17.03;42095.20
1725547605.324;500;17.03;42095.20
1725547605.374;500;14.35;35398.13
1725547618.100;500;14.17;34954.07
1725547618.149;500;14.17;34954.07
1725547618.200;500;14.17;34954.07
1725547618.300;500;15.74;38868.93
1725547618.350;500;15.60;38518.54
1725547618.399;500;15.60;38518.54
1725547618.851;500;14.55;35900.67
1725547618.900;500;14.81;36544.13
1725547618.950;500;14.81;36544.13
1725547619.001;500;14.81;36544.13
1725547619.051;500;14.28;35232.27
1725547619.100;500;14.28;35232.27
1725547619.150;500;14.28;35232.27
1725547619.200;500;14.28;35232.27
1725547619.250;500;14.55;35899.07
1725547619.300;500;14.55;35899.07
1725547619.351;500;14.55;35899.07
1725547619.401;500;14.55;35899.07
1725547619.451;500;14.66;36178.67
1725547619.501;500;14.66;36178.67
1725547619.550;500;14.66;36178.67
1725547619.601;500;14.66;36178.67
1725547619.651;500;15.89;39248.73
1725547619.700;500;15.41;38062.40
1725547619.751;500;16.41;40546.00
1725547619.800;500;16.41;40546.00
1725547619.850;500;16.41;40546.00
1725547619.902;500;16.44;40641.73
1725547620.052;500;14.97;36958.54
1725547620.452;500;15.29;37750.73
1725547620.502;500;15.29;37750.73
1725547620.552;500;15.29;37750.73
1725547620.602;500;15.29;37750.73
1725547620.653;500;14.99;37005.87
1725547620.702;500;14.99;37005.87
1725547620.752;500;14.99;37005.87
1725547620.803;500;14.99;37005.87
1725547620.852;500;14.96;36919.60
1725547620.903;500;14.65;36157.46
1725547620.952;500;14.65;36157.46
1725547621.002;500;14.65;36157.46
1725547621.053;500;16.88;41734.73
1725547621.103;500;17.36;42941.20
1725547621.153;500;16.38;40482.40
1725547621.203;500;16.38;40482.40
1725547621.254;500;16.31;40305.80
1725547621.304;500;17.41;43065.33
1725547621.354;500;16.55;40895.20
1725547621.404;500;16.55;40895.20
1725547621.453;500;17.14;42395.07
1725547621.504;500;15.83;39108.20
1725547621.554;500;16.83;41595.07
1725547621.604;500;16.83;41595.07
1725547621.653;500;16.83;41595.07
1725547621.703;500;15.01;37054.13
1725547621.903;500;16.92;41843.33
1725547621.953;500;14.86;36676.27
1725547622.003;500;14.86;36676.27
1725547622.054;500;14.86;36676.27
1725547622.104;500;14.49;35738.54
1725547622.153;500;16.85;41667.87
1725547622.204;500;16.85;41667.87
1725547622.254;500;16.85;41667.87
1725547622.305;500;16.20;40030.20
1725547622.355;500;14.34;35378.27
1725547622.405;500;14.34;35378.27
1725547622.454;500;14.67;36193.46
1725547622.505;500;17.10;42285.33
1725547635.393;500;14.38;35466.67
1725547635.843;500;14.30;35269.33
1725547635.894;500;14.30;35269.33
1725547636.344;500;14.57;35949.07
1725547636.395;500;14.57;35949.07
1725547636.445;500;14.57;35949.07
1725547636.495;500;14.57;35949.07
1725547636.547;500;17.12;42332.27
1725547636.597;500;17.40;43046.40
1725547636.647;500;17.09;42254.93
1725547636.697;500;17.09;42254.93
1725547636.747;500;16.14;39886.07
1725547636.797;500;16.45;40651.07
1725547636.847;500;16.81;41546.27
1725547636.897;500;16.81;41546.27
1725547636.946;500;16.81;41546.27
1725547636.997;500;16.66;41187.33
1725547637.047;500;16.52;40826.46
1725547637.096;500;16.52;40826.46
1725547637.147;500;16.52;40826.46
1725547637.197;500;16.55;40911.07
1725547637.247;500;16.44;40625.33
1725547637.297;500;16.44;40625.33
1725547637.347;500;16.44;40625.33
1725547637.397;500;16.45;40652.20
1725547637.447;500;17.32;42841.87
1725547637.498;500;17.32;42841.87
1725547637.547;500;17.32;42841.87
1725547637.598;500;16.26;40182.00
1725547637.649;500;16.53;40864.46
1725547637.699;500;16.53;40864.46
1725547637.749;500;16.53;40864.46
1725547637.799;500;15.28;37721.00
1725547637.849;500;15.27;37710.67
1725547637.899;500;15.27;37710.67
1725547637.949;500;15.27;37710.67
1725547637.999;500;14.65;36156.67
1725547638.051;500;15.71;38814.40
1725547638.101;500;15.71;38814.40
1725547638.150;500;15.71;38814.40
1725547638.200;500;15.78;38985.20
1725547638.250;500;14.45;35644.67
1725547638.300;500;14.45;35644.67
1725547638.351;500;14.45;35644.67
1725547638.401;500;15.15;37411.40
1725547638.451;500;16.29;40249.20
1725547638.501;500;16.35;40408.33
1725547638.551;500;16.35;40408.33
1725547638.601;500;16.35;40408.33
1725547638.651;500;16.54;40888.80
1725547638.701;500;17.23;42614.27
1725547638.751;500;16.60;41032.00
1725547638.801;500;16.60;41032.00
1725547638.852;500;16.60;41032.00
1725547638.902;500;16.36;40424.40
1725547638.951;500;14.40;35528.40
1725547639.002;500;14.40;35528.40
1725547639.051;500;14.40;35528.40
1725547639.101;500;14.39;35486.80
1725547639.354;500;14.70;36281.00
1725547639.404;500;14.70;36281.00
1725547639.454;500;14.70;36281.00
1725547639.553;500;17.01;42062.67
1725547639.604;500;17.01;42062.67
1725547639.653;500;17.01;42062.67
1725547639.704;500;16.82;41575.73
1725547639.754;500;16.46;40675.33
1725547639.803;500;16.46;40675.33
1725547639.854;500;16.46;40675.33
1725547639.904;500;16.52;40835.54
1725547639.954;500;17.78;43977.33
1725547790.909;54;20.00;35216.13
1725547790.960;54;20.00;35216.13
1725547791.009;52;20.00;35898.67
1725547791.060;47;20.00;37698.13
1725547791.110;47;20.00;37698.13
1725547791.160;47;20.00;37698.13
1725547791.210;36;20.00;41231.20
1725547791.260;38;20.00;40626.54
1725547791.310;38;20.00;40626.54
1725547791.360;38;20.00;40626.54
1725547791.460;52;20.00;35993.40
1725547791.510;52;20.00;35993.40
1725547791.560;52;20.00;35993.40
1725547791.610;50;20.00;36620.46
1725547791.661;54;20.00;35328.67
1725547791.710;53;20.00;35609.20
1725547791.760;53;20.00;35609.20
1725547791.810;54;20.00;35145.20
1725547791.860;45;20.00;38290.20
1725547791.910;54;20.00;35309.93
1725547791.960;54;20.00;35309.93
1725547792.060;37;20.00;40978.67
1725547792.110;47;20.00;37466.13
1725547792.160;47;20.00;37466.13
1725547792.210;47;20.00;37466.13
1725547792.310;36;20.00;41302.40
1725547792.361;44;20.00;38634.13
1725547792.411;44;20.00;38634.13
1725547792.461;44;20.00;38634.13
1725547792.511;55;20.00;34937.60
1725547792.712;53;20.00;35586.93
1725547792.912;54;20.00;35142.33
1725547792.963;54;20.00;35142.33
1725547793.012;54;20.00;35142.33
1725547793.062;51;20.00;36277.27
1725547793.112;43;20.00;38745.73
1725547793.162;43;20.00;38745.73
1725547793.213;43;20.00;38745.73
1725547793.262;48;20.00;37306.80
1725547793.313;50;20.00;36432.20
1725547793.364;50;20.00;36432.20
1725547793.413;50;20.00;36432.20
1725547793.664;52;20.00;35783.87
1725547793.713;54;20.00;35277.73
1725547793.764;54;20.00;35277.73
1725547793.813;54;20.00;35277.73
1725547793.914;42;20.00;39170.20
1725547793.964;42;20.00;39170.20
1725547794.013;42;20.00;39170.20
1725547795.115;53;20.00;35495.40
1725547795.166;53;20.00;35495.40
1725547795.216;53;20.00;35495.40
1725547807.678;54;20.00;35115.07
1725547807.728;54;20.00;35227.20
1725547807.779;54;20.00;35227.20
1725547807.829;54;20.00;35227.20
1725547807.879;36;20.00;41068.27
1725547807.929;46;20.00;37866.40
1725547807.979;46;20.00;37866.40
1725547808.030;46;20.00;37866.40
1725547808.130;44;20.00;38492.80
1725547808.180;44;20.00;38492.80
1725547808.230;44;20.00;38492.80
1725547808.281;47;20.00;37655.87
1725547808.330;34;20.00;41920.93
1725547808.381;34;20.00;41920.93
1725547808.431;34;20.00;41920.93
1725547808.531;52;20.00;35860.33
1725547808.581;52;20.00;35860.33
1725547808.632;52;20.00;35860.33
1725547808.881;44;20.00;38450.40
1725547808.931;52;20.00;35782.27
1725547808.982;52;20.00;35782.27
1725547809.032;52;20.00;35782.27
1725547809.131;35;20.00;41644.80
1725547809.182;35;20.00;41644.80
1725547809.232;35;20.00;41644.80
1725547809.283;39;20.00;40196.67
1725547810.535;54;20.00;35175.80
1725547810.586;54;20.00;35175.80
1725547810.635;54;20.00;35175.80
1725547810.686;54;20.00;35420.20
1725547810.736;53;20.00;35469.07
1725547810.786;53;20.00;35469.07
1725547810.836;53;20.00;35469.07
1725547810.935;44;20.00;38595.13
1725547810.986;44;20.00;38595.13
1725547811.036;44;20.00;38595.13
1725547811.085;53;20.00;35700.13
1725547811.137;46;20.00;38003.46
1725547811.188;46;20.00;38003.46
1725547811.237;46;20.00;38003.46
1725547811.288;51;20.00;36258.13
1725547811.337;45;20.00;38176.27
1725547811.387;45;20.00;38176.27
1725547811.439;45;20.00;38176.27
1725547811.489;55;20.00;34937.73
1725547811.539;42;20.00;39296.13
1725547811.589;42;20.00;39296.13
1725547811.639;42;20.00;39296.13
1725547811.889;49;20.00;36922.93
1725547811.939;55;20.00;35024.80
1725547811.989;55;20.00;35024.80
1725547812.039;55;20.00;35024.80
1725547812.139;50;20.00;36660.27
1725547812.189;50;20.00;36660.27
1725547812.239;50;20.00;36660.27
1725547812.339;34;20.00;41795.33
1725547812.389;34;20.00;41795.33
1725547812.439;34;20.00;41795.33
1725547812.489;55;20.00;35024.46
1725547812.539;39;20.00;40383.60
1725547812.589;39;20.00;40383.60
1725547812.639;39;20.00;40383.60
1725547812.689;48;20.00;37126.80
1725547812.739;39;20.00;40280.67
1725547824.851;51;20.00;36170.80
1725547824.901;51;20.00;36170.80
1725547824.950;51;20.00;36170.80
1725547825.002;32;20.00;42615.20
1725547825.052;26;20.00;44612.54
1725547825.102;26;20.00;44612.54
1725547825.151;44;20.00;38564.93
1725547825.202;40;20.00;39847.87
1725547825.251;40;20.00;39847.87
1725547825.302;40;20.00;39847.87
1725547825.353;53;20.00;35500.13
1725547825.403;48;20.00;37340.46
1725547825.452;52;20.00;35919.20
1725547825.502;52;20.00;35919.20
1725547825.553;52;20.00;35919.20
1725547825.603;46;20.00;38003.80
1725547825.653;42;20.00;39225.33
1725547825.703;42;20.00;39225.33
1725547825.753;42;20.00;39225.33
1725547825.802;47;20.00;37610.27
1725547825.853;45;20.00;38312.87
1725547825.904;45;20.00;38312.87
1725547825.953;45;20.00;38312.87
1725547826.003;38;20.00;40722.87
1725547826.053;33;20.00;42135.33
1725547826.104;33;20.00;42135.33
1725547826.153;33;20.00;42135.33
1725547826.204;55;20.00;34931.27
1725547826.253;45;20.00;38366.67
1725547826.303;45;20.00;38366.67
1725547826.355;45;20.00;38366.67
1725547826.406;34;20.00;41882.54
1725547826.455;32;20.00;42641.54
1725547826.505;32;20.00;42641.54
1725547826.556;47;20.00;37583.67
1725547826.606;41;20.00;39497.46
1725547826.656;41;20.00;39497.46
1725547826.706;41;20.00;39497.46
1725547826.756;53;20.00;35596.13
1725547826.806;47;20.00;37511.80
1725547826.856;47;20.00;37511.80
1725547826.907;47;20.00;37511.80
1725547826.964;33;20.00;42322.13
1725547827.006;47;20.00;37513.20
1725547827.057;46;20.00;37880.67
1725547827.107;46;20.00;37880.67
1725547827.157;43;20.00;39045.20
1725547827.207;32;20.00;42397.07
1725547827.257;35;20.00;41523.46
1725547827.307;35;20.00;41523.46
1725547827.357;40;20.00;39754.40
1725547827.408;41;20.00;39630.13
1725547827.458;45;20.00;38267.07
1725547827.507;45;20.00;38267.07
1725547827.557;40;20.00;39743.46
1725547827.607;53;20.00;35458.80
1725547827.657;54;20.00;35146.80
1725547827.707;54;20.00;35146.80
1725547827.757;55;20.00;35020.40
1725547827.807;37;20.00;40981.60
1725547827.857;42;20.00;39094.20
1725547827.908;42;20.00;39094.20
1725547827.957;42;20.00;39094.20
1725547828.008;52;20.00;35760.54
1725547828.057;41;20.00;39726.73
1725547828.107;41;20.00;39726.73
1725547828.159;41;20.00;39726.73
1725547828.209;35;20.00;41713.73
1725547828.260;50;20.00;36570.80
1725547828.310;50;20.00;36570.80
1725547828.360;50;20.00;36570.80
1725547828.415;49;20.00;37058.93
1725547828.713;54;20.00;35231.87
1725547828.763;54;20.00;35231.87
1725547828.813;54;20.00;35231.87
1725547828.863;49;20.00;36875.07
1725547828.913;53;20.00;35507.33
1725547828.963;53;20.00;35507.33
1725547829.013;53;20.00;35507.33
1725547829.063;48;20.00;37201.46
1725547829.113;33;20.00;42110.13
1725547829.162;33;20.00;42110.13
1725547829.213;33;20.00;42110.13
1725547829.263;49;20.00;36958.40
1725547829.313;52;20.00;35823.93
1725547829.363;52;20.00;35823.93
1725547829.412;52;20.00;35823.93
1725547829.463;38;20.00;40481.07
1725547829.563;34;20.00;41775.33
1725547829.614;34;20.00;41775.33
1725547829.663;34;20.00;41775.33
1725547829.715;54;20.00;35197.07
1725547829.765;47;20.00;37641.27
1725547829.814;47;20.00;37641.27
1725547829.864;47;20.00;37641.27
1725547829.915;55;20.00;35001.40
1725547829.970;39;20.00;40185.07
1725547830.170;36;20.00;41113.80
1725547830.220;40;20.00;39800.27
1725547959.129;200;14.56;35931.60
1725547959.780;200;14.18;34967.33
1725547959.829;200;14.18;34967.33
1725547959.880;200;14.18;34967.33
1725547959.980;200;17.20;42534.80
1725547960.030;200;17.20;42534.80
1725547960.080;200;17.20;42534.80
1725547960.130;200;15.23;37603.20
1725547960.180;200;15.99;39494.27
1725547960.230;200;15.99;39494.27
1725547960.281;200;15.99;39494.27
1725547960.380;200;17.41;43055.33
1725547960.430;200;17.41;43055.33
1725547960.480;200;17.41;43055.33
1725547960.530;200;16.22;40068.87
1725547960.580;200;17.48;43231.00
1725547960.630;200;17.48;43231.00
1725547960.680;200;17.48;43231.00
1725547960.730;200;14.39;35498.13
1725547960.780;200;14.60;36014.80
1725547960.831;200;14.60;36014.80
1725547960.881;200;14.60;36014.80
1725547960.931;200;14.60;36014.80
1725547960.981;200;17.24;42644.80
1725547961.030;200;17.24;42644.80
1725547961.080;200;17.24;42644.80
1725547961.130;200;17.05;42148.40
1725547961.180;200;16.71;41299.33
1725547961.230;200;16.71;41299.33
1725547961.281;200;16.71;41299.33
1725547961.331;200;16.13;39860.80
1725547961.382;200;14.41;35552.40
1725547961.432;200;14.41;35552.40
1725547961.482;200;14.73;36353.87
1725547961.532;200;14.22;35061.20
1725547961.582;200;15.71;38796.27
1725547961.632;200;15.71;38796.27
1725547961.683;200;15.71;38796.27
1725547961.732;200;16.18;39983.60
1725547961.782;200;16.18;39968.33
1725547961.832;200;16.18;39968.33
1725547961.884;200;16.18;39968.33
1725547961.933;200;16.14;39868.40
1725547961.984;200;15.56;38434.13
1725547962.034;200;15.56;38434.13
1725547962.085;200;15.56;38434.13
1725547962.135;200;17.54;43385.20
1725547962.184;200;16.49;40760.93
1725547962.234;200;16.49;40760.93
1725547962.285;200;16.49;40760.93
1725547962.335;200;16.66;41181.40
1725547962.386;200;17.26;42695.20
1725547962.436;200;17.26;42695.20
1725547962.486;200;17.26;42695.20
1725547962.536;200;16.99;42009.33
1725547962.736;200;15.66;38685.20
1725547962.938;200;14.17;34955.20
1725547963.189;200;14.38;35463.20
1725547963.238;200;14.38;35463.20
1725547963.289;200;14.38;35463.20
1725547963.339;200;14.21;35040.13
1725547963.389;200;16.18;39967.67
1725547963.439;200;16.18;39967.67
1725547963.489;200;16.18;39967.67
1725547963.539;200;15.77;38951.40
1725547963.589;200;15.87;39214.40
1725547963.639;200;15.87;39214.40
1725547963.688;200;15.87;39214.40
1725547963.739;200;15.87;39214.40
1725547963.789;200;15.54;38383.33
1725547976.243;200;14.41;35552.93
1725547976.394;200;14.55;35891.73
1725547976.594;200;16.69;41262.54
1725547976.646;200;14.55;35901.46
1725547976.695;200;14.55;35901.46
1725547976.745;200;14.55;35901.46
1725547976.796;200;16.15;39913.00
1725547976.846;200;14.20;35021.07
1725547976.895;200;14.20;35021.07
1725547976.947;200;14.73;36354.87
1725547977.147;200;17.50;43276.67
1725547977.347;200;14.17;34953.60
1725547977.399;200;14.16;34919.13
1725547977.449;200;14.16;34919.13
1725547977.499;200;14.16;34919.13
1725547977.549;200;14.96;36923.20
1725547978.401;200;14.66;36184.54
1725547978.450;200;14.66;36184.54
1725547978.500;200;14.66;36184.54
1725547978.550;200;14.52;35813.20
1725547978.600;200;14.65;36142.13
1725547978.650;200;14.96;36920.67
1725547978.700;200;14.96;36920.67
1725547978.751;200;14.65;36139.60
1725547978.802;200;15.38;37985.87
1725547978.852;200;15.38;37985.87
1725547978.902;200;15.38;37985.87
1725547978.951;200;14.24;35112.40
1725547979.002;200;16.55;40899.54
1725547979.051;200;16.55;40899.54
1725547979.102;200;16.55;40899.54
1725547979.151;200;14.18;34978.67
1725547979.203;200;16.27;40198.00
1725547979.253;200;16.27;40198.00
1725547979.303;200;16.27;40198.00
1725547979.353;200;15.02;37067.46
1725547979.404;200;14.65;36140.80
1725547979.453;200;14.65;36140.80
1725547979.505;200;14.65;36140.80
1725547979.554;200;14.92;36835.20
1725547979.606;200;15.38;37974.27
1725547979.655;200;15.38;37974.27
1725547979.706;200;15.38;37974.27
1725547979.755;200;15.31;37792.54
1725547979.805;200;16.94;41870.60
1725547979.855;200;16.94;41870.60
1725547979.906;200;16.94;41870.60
1725547979.956;200;16.94;41870.60
1725547980.006;200;16.72;41319.80
1725547980.056;200;16.72;41319.80
1725547980.106;200;16.72;41319.80
1725547980.156;200;15.09;37247.67
1725547980.206;200;15.81;39046.54
1725547980.256;200;15.81;39046.54
1725547980.306;200;15.81;39046.54
1725547980.356;200;16.34;40371.00
1725547980.405;200;16.45;40664.27
1725547980.456;200;16.45;40664.27
1725547980.505;200;16.46;40684.93
1725547980.555;200;15.99;39512.40
1725547980.606;200;14.92;36820.67
1725547980.656;200;14.92;36820.67
1725547980.707;200;14.92;36820.67
1725547980.756;200;14.30;35269.33
1725547980.807;200;14.22;35068.80
1725547980.858;200;14.18;34967.60
1725547980.907;200;14.18;34967.60
1725547980.957;200;14.18;34967.60
1725547981.009;200;16.04;39632.80
1725547981.059;200;14.33;35342.93
1725547981.109;200;17.23;42600.27
1725547981.159;200;17.23;42600.27
1725547981.209;200;17.23;42600.27
1725547981.259;200;17.23;42600.27
1725547981.308;200;17.46;43174.13
1725547993.662;200;14.26;35162.33
1725547993.862;200;14.49;35737.40
1725547993.912;200;15.22;37585.73
1725547993.962;200;15.22;37585.73
1725547994.012;200;15.22;37585.73
1725547994.062;200;14.28;35217.87
1725547994.112;200;15.64;38632.33
1725547994.162;200;15.67;38696.40
1725547994.213;200;15.67;38696.40
1725547994.263;200;15.81;39058.67
1725547994.313;200;15.07;37191.13
1725547994.363;200;15.07;37191.13
1725547994.413;200;15.07;37191.13
1725547994.464;200;14.54;35875.60
1725547994.513;200;15.72;38834.13
1725547994.564;200;15.44;38130.80
1725547994.614;200;15.44;38130.80
1725547994.663;200;16.27;40198.93
1725547994.713;200;17.13;42355.07
1725547994.763;200;17.13;42355.07
1725547994.813;200;17.13;42355.07
1725547994.864;200;17.04;42143.60
1725547994.914;200;17.52;43342.27
1725547994.964;200;17.52;43342.27
1725547995.014;200;17.52;43342.27
1725547995.064;200;17.26;42692.27
1725547995.114;200;15.22;37568.93
1725547995.164;200;15.22;37568.93
1725547995.214;200;15.22;37568.93
1725547995.265;200;15.22;37568.93
1725547995.314;200;17.05;42165.60
1725547995.364;200;14.62;36060.73
1725547995.414;200;14.62;36060.73
1725547995.464;200;15.10;37276.60
1725547995.515;200;15.42;38069.20
1725547995.564;200;15.42;38069.20
1725547995.614;200;15.42;38069.20
1725547995.664;200;16.98;41984.93
1725547995.714;200;15.61;38552.00
1725547995.765;200;15.61;38552.00
1725547995.814;200;15.61;38552.00
1725547995.864;200;14.99;36991.20
1725547995.916;200;16.37;40461.33
1725547995.965;200;16.37;40461.33
1725547996.016;200;16.37;40461.33
1725547996.065;200;16.23;40114.40
1725547996.116;200;16.70;41282.40
1725547996.165;200;16.70;41282.40
1725547996.215;200;16.70;41282.40
1725547996.266;200;16.63;41116.20
1725547996.316;200;14.47;35692.40
1725547996.367;200;14.56;35921.60
1725547996.417;200;14.56;35921.60
1725547996.467;200;14.56;35921.60
1725547996.516;200;17.17;42469.54
1725547996.567;200;16.78;41484.54
1725547996.616;200;16.78;41484.54
1725547996.668;200;16.78;41484.54
1725547996.718;200;16.93;41851.60
1725547996.768;200;16.71;41304.73
1725547996.817;200;16.71;41304.73
1725547996.867;200;16.70;41287.73
1725547996.917;200;16.64;41131.93
1725547996.968;200;16.64;41131.93
1725547997.017;200;16.64;41131.93
1725547997.069;200;15.10;37275.87
1725547997.119;200;17.10;42283.20
1725547997.168;200;17.10;42283.20
1725547997.219;200;17.10;42283.20
1725547997.269;200;15.93;39355.87
1725547997.318;200;16.74;41393.60
1725547997.369;200;16.74;41393.60
1725547997.419;200;16.74;41393.60
1725547997.470;200;15.35;37900.54
1725547997.520;200;17.68;43743.46
1725547997.570;200;17.68;43743.46
1725547997.620;200;17.68;43743.46
1725547997.670;200;16.38;40474.07
1725547997.871;200;14.64;36125.73
1725547998.072;200;14.17;34944.54
1725547998.121;200;14.50;35771.07
1725547998.171;200;14.50;35771.07
1725547998.221;200;14.50;35771.07
1725547998.271;200;14.50;35771.07
1725547998.322;200;16.45;40665.73
1725547998.372;200;16.45;40665.73
1725547998.421;200;16.45;40665.73
1725547998.472;200;16.06;39682.87
1725547998.522;200;17.68;43723.73
1725547998.572;200;17.68;43723.73
1725547998.622;200;17.68;43723.73
1725547998.673;200;17.39;43008.67
1725547998.873;200;15.39;37997.20
1725547998.924;200;14.34;35366.54
1725547998.974;200;14.22;35069.20
1725547999.024;200;14.22;35069.20
1725547999.073;200;14.94;36874.67
1725548131.622;53;40.00;35701.60
1725548131.672;53;40.00;35701.60
1725548131.722;53;40.00;35701.60
1725548131.972;26;40.00;44715.87
1725548132.023;54;40.00;35246.27
1725548132.425;50;40.00;36586.54
1725548132.474;50;40.00;36507.60
1725548132.525;50;40.00;36507.60
1725548132.574;50;40.00;36507.60
1725548132.625;54;40.00;35275.67
1725548132.675;33;40.00;42234.80
1725548132.725;33;40.00;42234.80
1725548132.775;33;40.00;42234.80
1725548132.825;28;40.00;43885.87
1725548132.875;46;40.00;37793.46
1725548132.925;46;40.00;37793.46
1725548132.976;46;40.00;37793.46
1725548133.026;50;40.00;36693.46
1725548133.075;41;40.00;39467.67
1725548133.126;41;40.00;39467.67
1725548133.175;41;40.00;39467.67
1725548133.225;46;40.00;37788.87
1725548133.275;53;40.00;35474.87
1725548133.326;53;40.00;35474.87
1725548133.375;53;40.00;35474.87
1725548133.426;55;40.00;34969.60
1725548133.476;49;40.00;36981.80
1725548133.526;49;40.00;36981.80
1725548133.576;49;40.00;36981.80
1725548133.626;53;40.00;35444.93
1725548133.676;38;40.00;40551.20
1725548133.727;38;40.00;40551.20
1725548133.776;38;40.00;40551.20
1725548133.826;37;40.00;40997.33
1725548133.876;44;40.00;38690.80
1725548133.926;44;40.00;38690.80
1725548133.976;44;40.00;38690.80
1725548134.026;53;40.00;35749.33
1725548134.077;40;40.00;40060.07
1725548134.127;40;40.00;40060.07
1725548134.177;40;40.00;40060.07
1725548134.228;48;40.00;37095.00
1725548134.280;42;40.00;39352.87
1725548134.327;42;40.00;39352.87
1725548134.377;42;40.00;39352.87
1725548134.427;54;40.00;35279.67
1725548134.477;53;40.00;35572.00
1725548134.528;53;40.00;35572.00
1725548134.577;53;40.00;35572.00
1725548134.628;40;40.00;39886.93
1725548134.677;46;40.00;38074.27
1725548134.727;46;40.00;38074.27
1725548134.777;46;40.00;38074.27
1725548134.827;44;40.00;38519.46
1725548134.877;36;40.00;41291.73
1725548134.927;36;40.00;41291.73
1725548134.978;36;40.00;41291.73
1725548135.027;41;40.00;39631.87
1725548135.077;54;40.00;35188.46
1725548135.127;54;40.00;35188.46
1725548135.177;54;40.00;35188.46
1725548135.227;54;40.00;35393.27
1725548135.277;48;40.00;37258.54
1725548135.327;48;40.00;37258.54
1725548135.377;48;40.00;37258.54
1725548135.427;48;40.00;37144.20
1725548135.477;38;40.00;40603.13
1725548135.527;38;40.00;40603.13
1725548135.577;38;40.00;40603.13
1725548135.627;49;40.00;36816.87
1725548135.728;43;40.00;38759.07
1725548135.778;43;40.00;38759.07
1725548135.828;43;40.00;38759.07
1725548135.879;48;40.00;37319.46
1725548135.928;45;40.00;38158.27
1725548135.978;37;40.00;40958.00
1725548136.028;37;40.00;40958.00
1725548136.079;45;40.00;38376.67
1725548136.129;36;40.00;41354.27
1725548136.178;52;40.00;35874.80
1725548136.229;52;40.00;35874.80
1725548136.280;52;40.00;35874.80
1725548136.379;35;40.00;41614.13
1725548136.430;35;40.00;41614.13
1725548136.481;35;40.00;41614.13
1725548136.530;53;40.00;35692.93
1725548136.730;39;40.00;40085.80
1725548149.382;51;40.00;36234.13
1725548149.433;51;40.00;36234.13
1725548149.483;51;40.00;36234.13
1725548149.533;51;40.00;36234.13
1725548149.582;40;40.00;39760.27
1725548149.633;34;40.00;41900.67
1725548149.683;34;40.00;41900.67
1725548149.733;34;40.00;41900.67
1725548149.783;45;40.00;38180.60
1725548149.834;41;40.00;39423.00
1725548149.884;41;40.00;39423.00
1725548149.934;36;40.00;41334.13
1725548149.984;46;40.00;37988.73
1725548150.034;46;40.00;37988.73
1725548150.084;46;40.00;37988.73
1725548150.134;47;40.00;37716.20
1725548150.184;49;40.00;36859.00
1725548150.234;49;40.00;36859.00
1725548150.284;49;40.00;36859.00
1725548150.335;35;40.00;41421.87
1725548150.586;54;40.00;35233.07
1725548150.636;54;40.00;35233.07
1725548150.686;54;40.00;35233.07
1725548150.736;54;40.00;35233.07
1725548150.836;53;40.00;35602.13
1725548150.886;53;40.00;35602.13
1725548150.937;54;40.00;35206.93
1725548150.987;36;40.00;41072.73
1725548151.037;36;40.00;41072.73
1725548151.087;36;40.00;41072.73
1725548151.137;38;40.00;40533.80
1725548151.187;45;40.00;38080.93
1725548151.237;37;40.00;40746.27
1725548151.287;37;40.00;40746.27
1725548151.337;37;40.00;40746.27
1725548151.392;49;40.00;36984.40
1725548151.440;47;40.00;37482.54
1725548151.490;47;40.00;37482.54
1725548151.540;48;40.00;37281.33
1725548151.590;45;40.00;38357.87
1725548151.640;45;40.00;38357.87
1725548151.691;45;40.00;38357.87
1725548151.740;45;40.00;38357.87
1725548151.791;49;40.00;36937.60
1725548151.840;49;40.00;36799.46
1725548151.890;49;40.00;36799.46
1725548151.991;54;40.00;35166.93
1725548152.040;54;40.00;35166.93
1725548152.091;54;40.00;35166.93
1725548152.141;46;40.00;37934.46
1725548152.340;53;40.00;35512.73
1725548152.541;53;40.00;35577.33
1725548152.792;47;40.00;37515.07
1725548152.842;47;40.00;37515.07
1725548152.892;47;40.00;37515.07
1725548152.992;54;40.00;35300.60
1725548153.042;54;40.00;35300.60
1725548153.092;54;40.00;35300.60
1725548153.142;54;40.00;35300.60
1725548153.242;53;40.00;35728.67
1725548153.292;53;40.00;35728.67
1725548153.592;53;40.00;35698.80
1725548153.643;53;40.00;35671.73
1725548153.693;53;40.00;35671.73
1725548153.743;53;40.00;35671.73
1725548153.943;28;40.00;43946.54
1725548153.993;50;40.00;36445.87
1725548154.043;50;40.00;36445.87
1725548154.093;50;40.00;36445.87
1725548154.193;55;40.00;35071.87
1725548154.244;55;40.00;35071.87
1725548154.293;55;40.00;35071.87
1725548154.344;28;40.00;43830.00
1725548166.927;54;40.00;35137.60
1725548167.027;49;40.00;36753.67
1725548167.077;49;40.00;36753.67
1725548167.127;49;40.00;36753.67
1725548167.177;47;40.00;37457.20
1725548167.227;40;40.00;39952.27
1725548167.278;40;40.00;39952.27
1725548167.328;40;40.00;39952.27
1725548167.379;51;40.00;36409.27
1725548167.429;50;40.00;36495.27
1725548167.478;50;40.00;36495.27
1725548167.528;55;40.00;35047.33
1725548167.578;33;40.00;42113.80
1725548167.629;29;40.00;43462.93
1725548167.680;29;40.00;43462.93
1725548167.730;32;40.00;42415.73
1725548167.929;40;40.00;39784.40
1725548167.979;53;40.00;35455.87
1725548168.030;49;40.00;36964.13
1725548168.079;49;40.00;36964.13
1725548168.130;49;40.00;36964.13
1725548168.180;54;40.00;35334.80
1725548168.230;48;40.00;37390.13
1725548168.280;47;40.00;37569.60
1725548168.330;47;40.00;37569.60
1725548168.380;47;40.00;37624.20
1725548168.429;54;40.00;35156.67
1725548168.480;54;40.00;35156.67
1725548168.529;54;40.00;35156.67
1725548168.630;33;40.00;42218.13
1725548168.680;33;40.00;42218.13
1725548168.730;33;40.00;42218.13
1725548168.831;37;40.00;40754.73
1725548168.881;37;40.00;40754.73
1725548168.931;37;40.00;40754.73
1725548169.032;40;40.00;39941.80
1725548169.082;40;40.00;39941.80
1725548169.132;40;40.00;39941.80
1725548169.182;37;40.00;40947.07
1725548169.232;50;40.00;36608.40
1725548169.282;40;40.00;39751.07
1725548169.332;40;40.00;39751.07
1725548169.383;40;40.00;39751.07
1725548169.432;37;40.00;40911.87
1725548169.483;36;40.00;41246.54
1725548169.532;34;40.00;41926.80
1725548169.583;34;40.00;41926.80
1725548169.632;41;40.00;39472.13
1725548169.683;50;40.00;36708.20
1725548169.933;53;40.00;35496.13
1725548169.983;53;40.00;35496.13
1725548170.033;53;40.00;35496.13
1725548170.134;36;40.00;41279.87
1725548170.185;36;40.00;41279.87
1725548170.235;36;40.00;41279.87
1725548170.286;46;40.00;37774.67
1725548170.335;37;40.00;40736.54
1725548170.386;37;40.00;40736.54
1725548170.437;42;40.00;39076.54
1725548170.536;53;40.00;35455.60
1725548170.586;53;40.00;35455.60
1725548170.636;47;40.00;37740.13
1725548170.687;50;40.00;36467.60
1725548170.736;50;40.00;36467.60
1725548170.787;50;40.00;36467.60
1725548170.836;53;40.00;35731.20
1725548170.887;55;40.00;34936.54
1725548171.037;39;40.00;40084.54
1725548171.087;45;40.00;38193.07
1725548171.137;45;40.00;38193.07
1725548171.188;45;40.00;38193.07
1725548171.289;36;40.00;41131.13
1725548171.338;36;40.00;41275.20
1725548171.389;36;40.00;41275.20
1725548171.439;36;40.00;41275.20
1725548171.489;53;40.00;35481.40
1725548171.539;50;40.00;36430.54
1725548171.590;50;40.00;36430.54
1725548171.639;50;40.00;36430.54
1725548171.689;38;40.00;40702.54
1725548171.739;52;40.00;36026.20
1725548171.790;52;40.00;36026.20
1725548171.839;52;40.00;36026.20
1725548171.890;54;40.00;35324.54
1725548171.940;41;40.00;39727.20
1725548171.991;41;40.00;39727.20
1725548172.040;41;40.00;39727.20
1725548172.091;44;40.00;38692.46
1725548283.582;50;14.83;36587.20
1725548283.632;50;14.83;36587.20
1725548283.681;50;14.83;36587.20
1725548283.731;50;17.05;42153.46
1725548283.783;50;14.92;36819.60
1725548283.833;50;14.92;36819.60
1725548283.883;50;14.92;36819.60
1725548283.933;50;16.17;39948.27
1725548283.983;50;16.17;39948.27
1725548284.033;50;16.17;39948.27
1725548284.083;50;15.89;39254.00
1725548284.133;50;16.97;41947.60
1725548284.183;50;16.97;41947.60
1725548284.233;50;16.97;41947.60
1725548284.283;50;14.53;35860.20
1725548284.333;50;16.64;41136.67
1725548284.382;50;16.64;41136.67
1725548284.433;50;16.64;41136.67
1725548284.484;50;14.71;36302.60
1725548284.533;50;14.84;36633.60
1725548284.584;50;14.84;36633.60
1725548284.633;50;14.84;36633.60
1725548284.684;50;15.78;38978.93
1725548285.234;50;14.19;34995.73
1725548285.284;50;14.19;34995.73
1725548285.333;50;14.87;36694.27
1725548285.384;50;14.22;35072.27
1725548285.434;50;16.35;40415.00
1725548285.484;50;16.35;40415.00
1725548285.533;50;15.18;37482.20
1725548285.584;50;15.40;38023.73
1725548287.041;50;14.43;35585.73
1725548287.092;50;14.43;35585.73
1725548287.341;50;14.27;35191.54
1725548287.392;50;14.31;35295.87
1725548287.442;50;14.31;35295.87
1725548287.493;50;14.31;35295.87
1725548287.593;50;14.76;36433.73
1725548287.643;50;14.76;36433.73
1725548287.693;50;14.76;36433.73
1725548287.793;50;16.89;41748.46
1725548287.843;50;16.89;41748.46
1725548287.894;50;16.89;41748.46
1725548287.943;50;14.39;35491.73
1725548287.993;50;14.38;35468.93
1725548288.044;50;14.38;35468.93
1725548288.093;50;14.38;35468.93
1725548288.143;50;15.35;37892.80
1725548288.194;50;16.31;40313.07
1725548288.244;50;14.69;36250.00
1725548288.294;50;14.69;36250.00
1725548288.344;50;14.69;36250.00
1725548288.394;50;15.12;37314.27
1725548288.444;50;15.25;37644.80
1725548288.494;50;15.25;37644.80
1725548288.545;50;15.25;37644.80
1725548288.596;50;15.25;37644.80
1725548288.645;50;14.64;36112.80
1725548288.696;50;14.21;35046.27
1725548288.745;50;14.21;35046.27
1725548288.795;50;14.21;35046.27
1725548288.845;50;15.85;39143.87
1725548301.302;50;14.78;36479.33
1725548301.502;50;15.58;38479.60
1725548301.651;50;14.20;35024.33
1725548301.701;50;16.85;41658.13
1725548301.903;50;14.26;35167.87
1725548302.154;50;14.48;35718.93
1725548302.203;50;14.50;35763.20
1725548302.253;50;14.50;35763.20
1725548302.304;50;14.37;35457.93
1725548302.404;50;14.84;36612.40
1725548302.455;50;14.84;36612.40
1725548302.504;50;16.80;41529.87
1725548302.955;50;14.40;35526.87
1725548303.005;50;14.40;35526.87
1725548303.155;50;14.72;36318.54
1725548303.205;50;14.72;36318.54
1725548303.255;50;14.49;35738.40
1725548303.306;50;14.58;35982.67
1725548303.357;50;14.29;35254.27
1725548303.407;50;14.29;35254.27
1725548303.456;50;14.29;35254.27
1725548303.557;50;16.17;39941.80
1725548303.607;50;16.17;39941.80
1725548303.657;50;16.17;39941.80
1725548303.756;50;15.55;38393.27
1725548303.807;50;15.55;38393.27
1725548303.857;50;15.55;38393.27
1725548303.907;50;16.92;41820.27
1725548303.957;50;17.06;42170.54
1725548304.007;50;17.06;42170.54
1725548304.057;50;17.06;42170.54
1725548304.107;50;14.58;35985.46
1725548304.157;50;15.18;37467.73
1725548304.207;50;15.18;37467.73
1725548304.257;50;15.18;37467.73
1725548304.308;50;15.35;37904.13
1725548304.358;50;16.51;40816.67
1725548304.408;50;16.51;40816.67
1725548304.458;50;16.51;40816.67
1725548304.508;50;17.20;42521.60
1725548304.558;50;14.20;35028.40
1725548304.607;50;14.20;35028.40
1725548304.658;50;14.20;35028.40
1725548304.708;50;16.49;40765.20
1725548304.758;50;16.25;40157.07
1725548304.809;50;16.25;40157.07
1725548304.859;50;16.25;40157.07
1725548304.909;50;14.43;35605.87
1725548304.958;50;16.23;40100.60
1725548305.009;50;16.23;40100.60
1725548305.058;50;16.23;40100.60
1725548305.159;50;17.02;42089.60
1725548305.210;50;17.02;42089.60
1725548305.259;50;17.02;42089.60
1725548305.309;50;15.43;38102.67
1725548305.359;50;16.08;39732.67
1725548305.409;50;16.08;39732.67
1725548305.460;50;16.08;39732.67
1725548305.559;50;16.21;40065.00
1725548305.610;50;16.21;40065.00
1725548305.659;50;16.21;40065.00
1725548305.760;50;16.27;40207.87
1725548305.810;50;16.27;40207.87
1725548305.860;50;16.27;40207.87
1725548305.910;50;14.46;35667.87
1725548306.111;50;16.35;40393.00
1725548306.161;50;14.20;35026.67
1725548306.211;50;14.20;35026.67
1725548306.261;50;14.20;35026.67
1725548306.312;50;14.68;36212.40
1725548306.362;50;16.23;40107.73
1725548306.412;50;16.23;40107.73
1725548306.462;50;16.23;40107.73
1725548306.512;50;14.67;36207.33
1725548306.561;50;15.44;38137.07
1725548319.189;50;14.70;36261.07
1725548319.238;50;14.70;36261.07
1725548319.589;50;14.54;35870.67
1725548319.640;50;14.54;35870.67
1725548319.690;50;14.21;35043.87
1725548319.788;50;14.49;35741.60
1725548319.840;50;14.49;35741.60
1725548319.890;50;15.24;37629.27
1725548319.990;50;15.29;37742.07
1725548320.039;50;15.29;37742.07
1725548320.089;50;16.66;41180.13
1725548320.340;50;15.13;37354.67
1725548320.591;50;14.73;36340.73
1725548320.641;50;14.73;36340.73
1725548320.691;50;14.73;36340.73
1725548320.792;50;14.46;35674.80
1725548320.843;50;14.46;35674.80
1725548320.893;50;14.46;35674.80
1725548320.943;50;14.32;35320.54
1725548320.992;50;15.18;37468.80
1725548321.042;50;15.18;37468.80
1725548321.092;50;15.18;37468.80
1725548321.142;50;15.93;39356.27
1725548321.194;50;15.86;39179.07
1725548321.243;50;15.86;39179.07
1725548321.293;50;15.86;39179.07
1725548321.343;50;16.72;41320.46
1725548321.394;50;14.42;35584.87
1725548321.444;50;14.42;35584.87
1725548321.495;50;14.52;35832.40
1725548321.545;50;14.77;36454.13
1725548321.595;50;14.40;35527.54
1725548321.645;50;14.40;35527.54
1725548321.696;50;14.40;35527.54
1725548321.795;50;16.79;41512.40
1725548321.846;50;16.79;41512.40
1725548321.895;50;16.79;41512.40
1725548321.997;50;15.59;38505.20
1725548322.047;50;15.59;38505.20
1725548322.096;50;15.59;38505.20
1725548322.147;50;14.28;35228.20
1725548322.196;50;14.28;35228.20
1725548322.246;50;14.28;35228.20
1725548322.296;50;16.68;41229.87
1725548322.346;50;16.02;39567.46
1725548322.398;50;16.02;39567.46
1725548322.448;50;16.02;39567.46
1725548322.498;50;15.26;37672.93
1725548322.548;50;15.26;37672.93
1725548322.598;50;15.26;37672.93
1725548322.648;50;16.07;39700.80
1725548322.699;50;15.16;37420.27
1725548322.748;50;15.16;37420.27
1725548322.799;50;15.16;37420.27
1725548322.848;50;14.37;35457.46
1725548322.899;50;14.86;36675.07
1725548322.948;50;14.86;36675.07
1725548322.998;50;14.77;36444.00
1725548323.749;50;14.38;35482.60
1725548323.798;50;14.95;36901.87
1725548323.855;50;14.95;36901.87
1725548323.899;50;14.95;36901.87
1725548323.948;50;16.68;41222.60
