UnixTimestamp;Microseconds;MilliAmpere;BaseValue
1739813757.149;43;30.00;37711.07
1739813757.197;47;30.00;41884.46
1739813757.297;50;30.00;46796.46
1739813757.347;50;30.00;46796.46
1739813757.397;51;30.00;47973.60
1739813757.447;51;30.00;47973.60
1739813757.497;47;30.00;41806.40
1739813757.548;47;30.00;41806.40
1739813757.597;47;30.00;42360.46
1739813757.648;46;30.00;40705.80
1739813757.698;49;30.00;45465.07
1739813757.748;44;30.00;38541.07
1739813757.798;44;30.00;38592.54
1739813757.848;44;30.00;38592.54
1739813757.898;50;30.00;46368.73
1739813757.948;50;30.00;46368.73
1739813757.998;52;30.00;48367.87
1739813758.048;52;30.00;48367.87
1739813758.098;50;30.00;46158.60
1739813758.148;47;30.00;42484.00
1739813758.198;47;30.00;41806.67
1739813758.247;50;30.00;46157.73
1739813758.298;47;30.00;41943.73
1739813758.348;48;30.00;44091.60
1739813758.398;49;30.00;45344.93
1739813758.448;43;30.00;37697.87
1739813758.498;43;30.00;37697.87
1739813758.548;43;30.00;37676.27
1739813758.598;43;30.00;37676.27
1739813758.648;44;30.00;39078.80
1739813758.698;44;30.00;39078.80
1739813758.748;45;30.00;39469.60
1739813758.798;45;30.00;39469.60
1739813758.949;47;30.00;42527.27
1739813759.004;47;30.00;42527.27
1739813759.048;43;30.00;37779.46
1739813759.098;43;30.00;37779.46
1739813759.348;44;30.00;39183.93
1739813759.399;44;30.00;39183.93
1739813759.448;45;30.00;39650.54
1739813759.498;45;30.00;39650.54
1739813759.548;48;30.00;43941.60
1739813759.599;48;30.00;43941.60
1739813759.649;44;30.00;38628.80
1739813759.699;47;30.00;42703.93
1739813759.749;47;30.00;42703.93
1739813759.799;47;30.00;42526.93
1739813759.849;47;30.00;42526.93
1739813759.899;48;30.00;43765.67
1739813759.949;48;30.00;43765.67
1739813768.473;44;30.00;38315.46
1739813768.522;44;30.00;38315.46
1739813768.572;49;30.00;45234.33
1739813768.623;49;30.00;45234.33
1739813768.672;52;30.00;48672.67
1739813768.723;52;30.00;48672.67
1739813768.773;46;30.00;41261.33
1739813768.822;46;30.00;40950.40
1739813768.872;44;30.00;38694.93
1739813769.023;43;30.00;37520.40
1739813769.073;45;30.00;39851.20
1739813769.223;47;30.00;42504.80
1739813769.273;44;30.00;39086.40
1739813769.324;44;30.00;39086.40
1739813769.373;49;30.00;44473.33
1739813769.424;49;30.00;44473.33
1739813769.474;44;30.00;38003.33
1739813769.525;44;30.00;38003.33
1739813769.575;44;30.00;38930.93
1739813769.626;44;30.00;38930.93
1739813769.676;46;30.00;40929.00
1739813769.725;46;30.00;40929.00
1739813769.775;47;30.00;41793.73
1739813769.826;47;30.00;41793.73
1739813769.876;44;30.00;38531.87
1739813769.926;44;30.00;38531.87
1739813769.975;44;30.00;38264.80
1739813770.026;44;30.00;38264.80
1739813770.176;45;30.00;39342.67
1739813770.226;45;30.00;39342.67
1739813770.277;53;30.00;50003.40
1739813770.327;53;30.00;50003.40
1739813770.376;53;30.00;49915.07
1739813770.428;53;30.00;49915.07
1739813770.477;50;30.00;46295.67
1739813770.527;50;30.00;46295.67
1739813770.578;51;30.00;47025.33
1739813770.627;51;30.00;47025.33
1739813770.677;45;30.00;39413.46
1739813770.728;45;30.00;39413.46
1739813770.778;53;30.00;50253.60
1739813770.828;53;30.00;50253.60
1739813770.878;51;30.00;47560.80
1739813770.928;51;30.00;47560.80
1739813770.978;49;30.00;44777.73
1739813771.028;45;30.00;40435.00
1739813771.078;45;30.00;40435.00
1739813771.128;43;30.00;37860.80
1739813779.717;44;30.00;38586.93
1739813779.767;44;30.00;38586.93
1739813779.817;50;30.00;45951.07
1739813779.867;50;30.00;45951.07
1739813779.917;44;30.00;38355.73
1739813779.967;44;30.00;38778.54
1739813780.017;50;30.00;46775.46
1739813780.067;50;30.00;46775.46
1739813780.117;47;30.00;42725.54
1739813780.167;46;30.00;41112.27
1739813780.217;46;30.00;40507.00
1739813780.268;48;30.00;43599.13
1739813780.317;48;30.00;44345.00
1739813780.367;50;30.00;46327.46
1739813780.417;47;30.00;42603.07
1739813780.467;52;30.00;49256.27
1739813780.517;51;30.00;48112.40
1739813780.568;50;30.00;46324.80
1739813780.617;50;30.00;46324.80
1739813780.670;47;30.00;42791.20
1739813780.717;47;30.00;42791.20
1739813780.768;43;30.00;37761.07
1739813780.818;43;30.00;37761.07
1739813780.867;44;30.00;38359.46
1739813780.918;44;30.00;38359.46
1739813780.968;54;30.00;51133.20
1739813781.018;54;30.00;51133.20
1739813781.068;48;30.00;43742.93
1739813781.118;48;30.00;43742.93
1739813781.168;46;30.00;41598.07
1739813781.218;50;30.00;46244.46
1739813781.268;49;30.00;44924.80
1739813781.318;47;30.00;42428.40
1739813781.368;47;30.00;42428.40
1739813781.418;47;30.00;42428.40
1739813781.468;45;30.00;39430.40
1739813781.518;45;30.00;39430.40
1739813781.668;45;30.00;40118.00
1739813781.717;45;30.00;40118.00
1739813781.768;47;30.00;42353.46
1739813781.818;47;30.00;42353.46
1739813781.868;46;30.00;41365.07
1739813781.918;46;30.00;41365.07
1739813781.968;46;30.00;41219.87
1739813782.018;46;30.00;41219.87
1739813782.068;46;30.00;41219.87
1739813782.118;46;30.00;41316.54
1739813782.168;45;30.00;39892.27
1739813782.218;45;30.00;39892.27
1739813782.368;43;30.00;37811.73
1739813782.418;43;30.00;37811.73
1739814013.949;45;50.00;39622.20
1739814013.999;45;50.00;39622.20
1739814014.050;52;50.00;48778.13
1739814014.100;52;50.00;48778.13
1739814014.150;47;50.00;42598.46
1739814014.200;47;50.00;42598.46
1739814014.249;43;50.00;37873.33
1739814014.300;43;50.00;37873.33
1739814014.350;45;50.00;39699.20
1739814014.401;45;50.00;39699.20
1739814014.550;45;50.00;39702.40
1739814014.600;45;50.00;39702.40
1739814014.751;50;50.00;46872.67
1739814014.801;51;50.00;47144.54
1739814014.850;53;50.00;49688.93
1739814014.901;49;50.00;44906.27
1739814014.951;52;50.00;48502.80
1739814015.000;52;50.00;48502.80
1739814015.051;49;50.00;44565.46
1739814015.101;49;50.00;44565.46
1739814015.151;51;50.00;48084.60
1739814015.200;51;50.00;48084.60
1739814015.251;51;50.00;46960.67
1739814015.300;51;50.00;46960.67
1739814015.352;53;50.00;49624.40
1739814015.402;53;50.00;49624.40
1739814015.451;49;50.00;44457.93
1739814015.502;49;50.00;44457.93
1739814015.551;46;50.00;41593.73
1739814015.601;46;50.00;41593.73
1739814015.651;51;50.00;47982.33
1739814015.702;51;50.00;47982.33
1739814015.751;49;50.00;44815.54
1739814015.802;49;50.00;44815.54
1739814015.851;46;50.00;40530.60
1739814015.901;49;50.00;44893.40
1739814016.851;43;50.00;37856.00
1739814016.902;43;50.00;37856.00
1739814024.483;43;50.00;37417.20
1739814024.534;43;50.00;37417.20
1739814024.584;43;50.00;37816.80
1739814024.634;43;50.00;37816.80
1739814024.683;51;50.00;48209.87
1739814024.734;51;50.00;48209.87
1739814024.784;45;50.00;40088.80
1739814024.834;45;50.00;40088.80
1739814024.983;52;50.00;48892.60
1739814025.034;52;50.00;48892.60
1739814025.084;50;50.00;45932.54
1739814025.135;50;50.00;45932.54
1739814025.185;45;50.00;39547.46
1739814025.235;45;50.00;39547.46
1739814025.385;46;50.00;41175.87
1739814025.435;46;50.00;41175.87
1739814025.486;49;50.00;45033.00
1739814025.536;49;50.00;45033.00
1739814025.586;45;50.00;40091.87
1739814025.637;47;50.00;42350.73
1739814025.686;46;50.00;41534.46
1739814025.736;44;50.00;39148.00
1739814025.837;48;50.00;43172.80
1739814025.886;48;50.00;43819.73
1739814025.936;48;50.00;43446.20
1739814025.986;45;50.00;40352.00
1739814026.036;49;50.00;44439.73
1739814026.086;45;50.00;39256.40
1739814026.186;44;50.00;38165.60
1739814026.286;46;50.00;40541.07
1739814026.336;43;50.00;37409.46
1739814026.436;45;50.00;39246.40
1739814026.486;45;50.00;39246.40
1739814026.636;43;50.00;37851.60
1739814026.687;43;50.00;37851.60
1739814026.737;46;50.00;40574.67
1739814026.787;44;50.00;38981.60
1739814026.838;44;50.00;38981.60
1739814026.889;49;50.00;45262.13
1739814026.938;49;50.00;45262.13
1739814026.988;50;50.00;46661.20
1739814027.038;50;50.00;46661.20
1739814027.089;49;50.00;44437.40
1739814027.139;49;50.00;44437.40
1739814027.188;50;50.00;46288.00
1739814027.239;50;50.00;46288.00
1739814027.488;45;50.00;39987.46
1739814027.540;45;50.00;39987.46
1739814027.589;44;50.00;38288.67
1739814027.639;44;50.00;38288.67
1739814027.689;53;50.00;49734.87
1739814027.740;53;50.00;49734.87
1739814036.297;43;50.00;37712.40
1739814036.347;43;50.00;37712.40
1739814036.397;51;50.00;47352.46
1739814036.447;51;50.00;47352.46
1739814036.497;51;50.00;47306.27
1739814036.547;51;50.00;47306.27
1739814036.597;52;50.00;49398.67
1739814036.647;52;50.00;49398.67
1739814036.697;53;50.00;49649.46
1739814036.747;53;50.00;49649.46
1739814036.796;52;50.00;48470.54
1739814036.847;49;50.00;45357.73
1739814036.897;53;50.00;50475.60
1739814036.947;53;50.00;50475.60
1739814036.997;46;50.00;40765.60
1739814037.047;46;50.00;40765.60
1739814037.096;53;50.00;49854.73
1739814037.147;53;50.00;49854.73
1739814037.197;44;50.00;38567.87
1739814037.246;44;50.00;38567.87
1739814037.298;47;50.00;41902.73
1739814037.348;47;50.00;41902.73
1739814037.397;51;50.00;48080.87
1739814037.448;51;50.00;48080.87
1739814037.497;44;50.00;38896.93
1739814037.548;45;50.00;40188.54
1739814037.598;48;50.00;44150.60
1739814037.648;48;50.00;44150.60
1739814037.698;46;50.00;41078.13
1739814037.748;46;50.00;41078.13
1739814037.798;45;50.00;40264.40
1739814037.847;45;50.00;40264.40
1739814037.898;43;50.00;37906.40
1739814037.948;43;50.00;37906.40
1739814038.098;44;50.00;38998.67
1739814038.148;44;50.00;38998.67
1739814038.197;44;50.00;38038.54
1739814038.248;44;50.00;38038.54
1739814038.297;45;50.00;40479.60
1739814038.348;45;50.00;40479.60
1739814038.398;51;50.00;47016.13
1739814038.448;51;50.00;47016.13
1739814038.497;52;50.00;48369.40
1739814038.548;52;50.00;48369.40
1739814038.598;48;50.00;44248.54
1739814038.648;49;50.00;45287.07
1739814038.699;47;50.00;42090.87
1739814038.750;47;50.00;42090.87
1739814038.799;48;50.00;43422.27
1739814038.850;48;50.00;43422.27
1739814038.899;45;50.00;40349.33
1739814038.950;45;50.00;40349.33
1739814038.999;45;50.00;40453.60
1739814039.050;45;50.00;40453.60
1739814039.099;52;50.00;48942.54
1739814039.150;52;50.00;48942.54
1739814039.200;46;50.00;41024.54
1739814039.249;46;50.00;41024.54
1739814039.299;51;50.00;47035.80
1739814039.350;51;50.00;47035.80
1739814039.400;48;50.00;43404.73
1739814039.449;48;50.00;43404.73
1739814230.169;44;10.00;38525.46
1739814230.419;47;10.00;42314.60
1739814230.470;47;10.00;42314.60
1739814230.520;46;10.00;41505.60
1739814230.670;44;10.00;39146.93
1739814230.720;44;10.00;39146.93
1739814230.771;49;10.00;44442.87
1739814230.821;49;10.00;44442.87
1739814230.870;43;10.00;37706.40
1739814230.921;43;10.00;37706.40
1739814230.971;48;10.00;43257.33
1739814231.020;47;10.00;42109.60
1739814231.071;47;10.00;42282.93
1739814231.120;45;10.00;39417.20
1739814231.170;45;10.00;39417.20
1739814231.221;48;10.00;43561.60
1739814231.271;48;10.00;43561.60
1739814231.321;47;10.00;42161.07
1739814231.371;47;10.00;43046.27
1739814231.420;47;10.00;43046.27
1739814231.470;45;10.00;40148.67
1739814231.520;45;10.00;40148.67
1739814231.571;44;10.00;38083.73
1739814231.620;44;10.00;38083.73
1739814231.671;45;10.00;39366.40
1739814231.721;45;10.00;39366.40
1739814231.770;44;10.00;38122.93
1739814231.921;47;10.00;42957.33
1739814231.970;47;10.00;42957.33
1739814232.021;46;10.00;41080.27
1739814232.070;46;10.00;41080.27
1739814232.220;47;10.00;42312.20
1739814232.271;44;10.00;37927.67
1739814232.321;44;10.00;37927.67
1739814232.371;48;10.00;44017.33
1739814232.421;48;10.00;44017.33
1739814232.471;44;10.00;38984.80
1739814232.521;44;10.00;38984.80
1739814232.571;45;10.00;39532.27
1739814232.622;45;10.00;39532.27
1739814232.671;45;10.00;39532.27
1739814232.721;45;10.00;39883.73
1739814232.771;45;10.00;39883.73
1739814232.821;48;10.00;43824.93
1739814232.872;48;10.00;43824.93
1739814232.921;44;10.00;38235.20
1739814232.972;45;10.00;40115.33
1739814233.021;45;10.00;40115.33
1739814233.071;48;10.00;44344.60
1739814233.121;48;10.00;44344.60
1739814233.171;47;10.00;42595.60
1739814233.221;47;10.00;42595.60
1739814233.271;44;10.00;37948.00
1739814233.322;44;10.00;37948.00
1739814233.372;47;10.00;43000.00
1739814233.421;47;10.00;43000.00
1739814233.472;43;10.00;37570.80
1739814233.521;44;10.00;39172.13
1739814233.572;44;10.00;39172.13
1739814233.622;48;10.00;44009.07
1739814233.672;48;10.00;44009.07
1739814242.772;43;10.00;37672.00
1739814242.822;43;10.00;37672.00
1739814242.872;47;10.00;42620.73
1739814242.922;47;10.00;42620.73
1739814242.971;45;10.00;39591.46
1739814243.022;44;10.00;38040.93
1739814243.071;44;10.00;38040.93
1739814243.121;43;10.00;37808.40
1739814243.172;43;10.00;37808.40
1739814243.323;45;10.00;40245.60
1739814243.374;45;10.00;40245.60
1739814243.424;45;10.00;40088.00
1739814243.473;45;10.00;40088.00
1739814243.523;45;10.00;39427.73
1739814243.573;45;10.00;39427.73
1739814243.623;46;10.00;41244.54
1739814243.673;45;10.00;39723.20
1739814243.723;45;10.00;39723.20
1739814243.773;44;10.00;38701.27
1739814243.824;44;10.00;38701.27
1739814243.873;44;10.00;38162.54
1739814243.924;51;10.00;47614.54
1739814243.973;52;10.00;49361.87
1739814244.023;44;10.00;37948.00
1739814244.074;44;10.00;37948.00
1739814244.123;47;10.00;42559.40
1739814244.174;45;10.00;39911.20
1739814244.223;47;10.00;42716.73
1739814244.273;47;10.00;42716.73
1739814244.324;50;10.00;46333.20
1739814244.374;50;10.00;46333.20
1739814244.424;49;10.00;44677.87
1739814244.474;49;10.00;44677.87
1739814244.524;52;10.00;48644.13
1739814244.574;45;10.00;40224.54
1739814244.624;49;10.00;45155.13
1739814244.675;48;10.00;43420.46
1739814244.725;48;10.00;43933.40
1739814244.775;48;10.00;43933.40
1739814244.825;49;10.00;44403.80
1739814244.875;48;10.00;44221.13
1739814244.925;44;10.00;38851.46
1739814244.975;44;10.00;38851.46
1739814245.025;44;10.00;38156.00
1739814245.075;44;10.00;38156.00
1739814245.125;44;10.00;38673.87
1739814245.175;44;10.00;38673.87
1739814245.225;48;10.00;44094.46
1739814245.275;48;10.00;44094.46
1739814245.325;46;10.00;40606.27
1739814245.375;46;10.00;40606.27
1739814245.425;49;10.00;44755.54
1739814245.475;49;10.00;44755.54
1739814245.526;43;10.00;37596.54
1739814245.576;43;10.00;37596.54
1739814245.626;47;10.00;42897.33
1739814245.676;47;10.00;42897.33
1739814245.726;48;10.00;43864.40
1739814245.776;48;10.00;43864.40
1739814245.827;46;10.00;41210.27
1739814245.876;46;10.00;41210.27
1739814245.926;44;10.00;38123.87
1739814245.978;44;10.00;38123.87
1739814246.027;45;10.00;39714.93
1739814246.077;45;10.00;39714.93
1739814246.128;49;10.00;44699.60
1739814246.178;47;10.00;42578.27
1739814246.228;46;10.00;41225.60
1739814252.803;44;10.00;38030.13
1739814252.853;44;10.00;38030.13
1739814252.902;47;10.00;41810.40
1739814252.953;47;10.00;41810.40
1739814253.002;45;10.00;40394.54
1739814253.053;45;10.00;39305.07
1739814253.102;43;10.00;37846.27
1739814253.202;43;10.00;37625.87
1739814253.252;43;10.00;37625.87
1739814257.506;45;10.00;39784.40
1739814257.557;45;10.00;39784.40
1739814257.606;44;10.00;39191.46
1739814257.657;44;10.00;39191.46
1739814533.023;400;13.89;38301.33
1739814533.073;400;13.89;38301.33
1739814533.173;400;13.85;38158.07
1739814533.224;400;13.85;38158.07
1739814533.273;400;15.08;43406.13
1739814533.323;400;15.08;43406.13
1739814533.373;400;14.77;42088.80
1739814533.425;400;14.77;42088.80
1739814533.475;400;16.02;47482.00
1739814533.525;400;15.27;44232.93
1739814533.575;400;14.93;42790.67
1739814533.625;400;14.93;42790.67
1739814533.675;400;13.74;37660.00
1739814533.725;400;14.31;40117.87
1739814533.775;400;14.31;40117.87
1739814533.825;400;15.74;46276.00
1739814533.875;400;15.74;46276.00
1739814534.125;400;13.78;37853.87
1739814534.279;400;13.70;37490.67
1739814534.328;400;13.83;38052.80
1739814534.379;400;13.83;38052.80
1739814534.429;400;15.70;46086.80
1739814534.479;400;15.70;46086.80
1739814534.529;400;14.83;42336.67
1739814534.580;400;14.83;42336.67
1739814534.629;400;14.78;42118.40
1739814534.679;400;14.78;42118.40
1739814534.729;400;16.26;48504.40
1739814534.780;400;16.26;48504.40
1739814534.830;400;14.61;41398.13
1739814534.880;400;14.76;42052.54
1739814534.930;400;14.76;42052.54
1739814534.980;400;14.30;40090.93
1739814535.030;400;14.30;40090.93
1739814535.080;400;16.04;47531.73
1739814535.130;400;16.04;47531.73
1739814535.180;400;13.91;38386.40
1739814535.230;400;13.75;37718.13
1739814535.280;400;13.75;37718.13
1739814535.330;400;14.97;42934.00
1739814535.380;400;14.97;42934.00
1739814535.431;400;14.89;42601.46
1739814535.480;400;14.89;42601.46
1739814535.530;400;15.12;43576.00
1739814535.580;400;15.12;43576.00
1739814535.630;400;13.70;37514.40
1739814535.680;400;14.36;40338.00
1739814535.730;400;14.36;40338.00
1739814535.780;400;16.13;47920.67
1739814535.831;400;16.13;47920.67
1739814535.880;400;15.34;44548.67
1739814536.030;400;13.93;38497.73
1739814536.080;400;13.93;38497.73
1739814536.130;400;15.71;46135.67
1739814536.181;400;15.71;46135.67
1739814536.230;400;14.16;39476.40
1739814536.281;400;14.16;39476.40
1739814536.331;400;13.95;38566.46
1739814536.382;400;13.95;38566.46
1739814536.431;400;14.30;40085.60
1739814536.482;400;13.78;37828.00
1739814536.531;400;13.78;37828.00
1739814536.581;400;15.40;44817.20
1739814536.631;400;15.40;44817.20
1739814536.682;400;15.13;43647.27
1739814536.732;400;14.40;40483.27
1739814536.782;400;14.40;40483.27
1739814536.831;400;14.41;40545.60
1739814536.882;400;14.41;40545.60
1739814536.932;400;15.84;46690.00
1739814536.982;400;15.84;46690.00
1739814537.032;400;14.75;41986.27
1739814537.082;400;14.75;41986.27
1739814537.132;400;14.95;42855.87
1739814537.182;400;14.74;41949.60
1739814537.233;400;14.74;41949.60
1739814545.883;400;13.70;37508.67
1739814545.933;400;14.26;39880.00
1739814545.983;400;14.26;39880.00
1739814546.034;400;13.83;38057.73
1739814546.084;400;13.83;38057.73
1739814546.133;400;15.10;43517.80
1739814546.184;400;15.37;44688.73
1739814546.234;400;15.37;44688.73
1739814546.284;400;14.96;42911.60
1739814546.334;400;14.96;42911.60
1739814546.383;400;14.88;42585.13
1739814546.435;400;14.88;42585.13
1739814546.485;400;13.92;38437.33
1739814546.535;400;13.92;38437.33
1739814546.585;400;13.87;38238.67
1739814546.635;400;13.73;37625.33
1739814546.685;400;13.73;37625.33
1739814546.735;400;15.09;43461.60
1739814546.785;400;15.09;43461.60
1739814546.835;400;14.68;41701.46
1739814546.886;400;14.68;41701.46
1739814546.935;400;14.69;41748.40
1739814546.986;400;14.69;41748.40
1739814547.135;400;15.65;45858.27
1739814547.286;400;14.47;40782.13
1739814547.336;400;14.47;40782.13
1739814547.386;400;15.32;44438.54
1739814547.436;400;14.36;40349.60
1739814547.486;400;14.36;40349.60
1739814547.536;400;15.77;46385.46
1739814547.586;400;15.77;46385.46
1739814547.635;400;14.01;38840.67
1739814547.686;400;14.01;38840.67
1739814547.736;400;14.46;40757.87
1739814547.786;400;14.46;40757.87
1739814547.836;400;14.22;39747.73
1739814547.886;400;15.09;43478.93
1739814547.936;400;15.09;43478.93
1739814547.987;400;14.77;42073.46
1739814548.036;400;14.77;42073.46
1739814548.086;400;15.78;46426.54
1739814548.136;400;15.78;46426.54
1739814548.186;400;14.37;40370.67
1739814548.237;400;14.87;42527.13
1739814548.287;400;14.87;42527.13
1739814548.336;400;14.47;40794.00
1739814548.387;400;14.47;40794.00
1739814548.436;400;14.00;38804.27
1739814548.486;400;14.00;38804.27
1739814548.536;400;15.30;44389.20
1739814548.586;400;15.30;44389.20
1739814548.636;400;15.81;46571.60
1739814548.687;400;15.81;46571.60
1739814548.736;400;14.02;38864.87
1739814548.786;400;14.90;42630.54
1739814548.836;400;14.90;42630.54
1739814548.886;400;14.52;41014.54
1739814548.937;400;14.64;41529.07
1739814548.986;400;14.64;41529.07
1739814549.137;400;13.78;37844.33
1739814549.187;400;13.78;37844.33
1739814549.437;400;14.55;41131.46
1739814549.487;400;14.55;41131.46
1739814549.537;400;15.82;46590.93
1739814549.588;400;15.82;46590.93
1739814549.637;400;15.31;44425.13
1739814549.687;400;13.75;37688.54
1739814549.738;400;13.75;37688.54
1739814549.787;400;15.84;46674.40
1739814549.838;400;15.84;46674.40
1739814549.888;400;15.84;46674.40
1739814558.601;400;14.53;41043.46
1739814558.651;400;14.53;41043.46
1739814558.701;400;15.63;45767.40
1739814558.750;400;15.62;45760.20
1739814558.801;400;15.62;45760.20
1739814558.850;400;15.42;44882.87
1739814558.901;400;15.42;44882.87
1739814558.950;400;14.91;42683.20
1739814559.000;400;14.91;42683.20
1739814559.050;400;16.39;49064.60
1739814559.101;400;16.39;49064.60
1739814559.151;400;13.87;38220.00
1739814559.201;400;13.87;38220.00
1739814559.251;400;14.48;40858.40
1739814559.301;400;14.48;40858.40
1739814559.401;400;15.23;44077.20
1739814559.450;400;15.23;44077.20
1739814559.501;400;14.02;38877.60
1739814559.551;400;14.02;38877.60
1739814559.601;400;15.58;45564.33
1739814559.650;400;15.58;45564.33
1739814559.700;400;14.30;40063.73
1739814559.750;400;14.16;39488.46
1739814559.801;400;14.16;39488.46
1739814559.850;400;15.76;46332.93
1739814559.902;400;15.76;46332.93
1739814559.951;400;14.35;40299.46
1739814560.002;400;14.35;40299.46
1739814560.052;400;15.26;44193.07
1739814560.102;400;15.26;44193.07
1739814560.152;400;15.26;44193.07
1739814560.203;400;16.62;50054.93
1739814560.253;400;16.62;50054.93
1739814560.302;400;15.16;43770.54
1739814560.353;400;15.16;43770.54
1739814560.402;400;15.23;44066.13
1739814560.453;400;15.23;44066.13
1739814560.502;400;14.54;41122.80
1739814560.552;400;14.75;41996.00
1739814560.602;400;14.75;41996.00
1739814560.652;400;16.05;47608.54
1739814560.702;400;16.05;47608.54
1739814560.753;400;15.83;46638.87
1739814560.803;400;15.83;46638.87
1739814560.853;400;15.53;45359.73
1739814560.903;400;15.53;45359.73
1739814560.953;400;15.52;45319.33
1739814561.003;400;15.52;45319.33
1739814561.055;400;16.05;47573.93
1739814561.105;400;15.95;47149.13
1739814561.255;400;14.10;39220.46
1739814561.305;400;14.10;39220.46
1739814561.355;400;15.46;45068.46
1739814561.405;400;15.46;45068.46
1739814561.455;400;15.33;44486.13
1739814561.505;400;15.33;44486.13
1739814561.555;400;15.63;45794.07
1739814561.605;400;16.33;48811.80
1739814561.655;400;16.43;49242.54
1739814561.705;400;15.80;46501.54
1739814561.755;400;15.57;45507.93
1739814561.805;400;16.20;48225.46
1739814561.855;400;14.77;42072.93
1739814561.905;400;14.77;42072.93
1739814561.955;400;14.15;39418.54
1739814562.005;400;15.43;44930.93
1739814562.055;400;13.72;37561.33
1739814562.105;400;14.00;38788.80
1739814562.155;400;15.44;44976.80
1739814562.205;400;15.44;44976.80
1739814562.255;400;15.45;45017.46
1739814562.305;400;14.63;41505.60
1739814702.215;200;14.19;39603.73
1739814702.265;200;13.87;38243.33
1739814702.315;200;13.87;38243.33
1739814702.365;200;13.87;38243.33
1739814702.465;200;14.72;41891.33
1739814702.515;200;14.72;41891.33
1739814702.565;200;13.83;38067.20
1739814702.615;200;15.38;44726.00
1739814702.665;200;15.38;44726.00
1739814702.715;200;15.91;46972.13
1739814702.765;200;15.91;46972.13
1739814702.815;200;14.74;41966.67
1739814702.865;200;14.74;41966.67
1739814703.115;200;14.05;38996.80
1739814703.264;200;14.90;42640.40
1739814703.315;200;14.90;42640.40
1739814703.365;200;14.41;40533.07
1739814703.415;200;14.41;40533.07
1739814703.465;200;15.61;45700.87
1739814703.515;200;16.01;47422.00
1739814703.565;200;16.01;47422.00
1739814703.615;200;15.88;46841.27
1739814703.665;200;15.88;46841.27
1739814703.714;200;15.31;44430.54
1739814703.765;200;15.31;44430.54
1739814703.815;200;14.91;42683.46
1739814703.865;200;13.73;37608.67
1739814703.915;200;13.73;37608.67
1739814703.965;200;14.24;39833.20
1739814704.015;200;14.24;39833.20
1739814704.115;200;14.02;38882.40
1739814704.166;200;14.13;39360.80
1739814704.215;200;15.45;44995.60
1739814704.265;200;15.45;44995.60
1739814704.316;200;15.28;44271.87
1739814704.366;200;15.28;44271.87
1739814704.516;200;14.69;41741.33
1739814704.566;200;14.69;41741.33
1739814704.615;200;14.54;41089.60
1739814704.666;200;14.54;41089.60
1739814704.716;200;13.94;38505.33
1739814704.766;200;13.94;38505.33
1739814704.816;200;13.92;38419.20
1739814704.867;200;14.23;39752.60
1739814704.966;200;15.57;45534.87
1739814705.016;200;15.57;45534.87
1739814705.067;200;15.40;44820.27
1739814705.116;200;16.04;47560.00
1739814705.166;200;15.00;43068.20
1739814705.216;200;15.00;43068.20
1739814705.267;200;13.80;37941.20
1739814705.316;200;15.80;46505.67
1739814705.366;200;15.80;46517.07
1739814705.416;200;15.31;44410.80
1739814705.467;200;15.31;44410.80
1739814705.516;200;16.32;48765.07
1739814705.566;200;15.88;46862.93
1739814705.616;200;15.88;46862.93
1739814705.666;200;14.23;39779.93
1739814705.816;200;14.11;39238.07
1739814705.867;200;14.11;39238.07
1739814705.916;200;14.12;39287.60
1739814705.966;200;14.12;39287.60
1739814706.017;200;15.52;45304.00
1739814706.067;200;15.52;45304.00
1739814713.576;200;14.13;39324.67
1739814713.626;200;14.13;39324.67
1739814713.676;200;15.90;46943.27
1739814713.726;200;15.90;46943.27
1739814713.826;200;15.48;45143.54
1739814713.926;200;15.32;44438.46
1739814714.026;200;15.18;43838.40
1739814714.076;200;14.19;39589.60
1739814714.325;200;13.85;38129.60
1739814714.377;200;13.85;38129.60
1739814714.426;200;14.16;39490.93
1739814714.476;200;14.22;39741.00
1739814714.526;200;13.93;38488.80
1739814714.576;200;13.93;38488.80
1739814714.626;200;15.83;46652.13
1739814714.676;200;15.83;46652.13
1739814714.726;200;15.43;44948.00
1739814714.776;200;15.43;44948.00
1739814714.826;200;15.78;46418.60
1739814714.876;200;15.78;46418.60
1739814714.926;200;15.22;44013.33
1739814714.976;200;15.22;44013.33
1739814715.026;200;15.71;46132.46
1739814715.076;200;15.71;46132.46
1739814715.126;200;15.97;47255.67
1739814715.177;200;15.97;47255.67
1739814715.226;200;13.74;37678.93
1739814715.276;200;13.74;37678.93
1739814715.326;200;14.65;41571.20
1739814715.377;200;14.65;41571.20
1739814715.426;200;14.69;41733.07
1739814715.477;200;14.69;41733.07
1739814715.527;200;14.93;42768.80
1739814715.577;200;14.93;42768.80
1739814715.627;200;15.91;46985.60
1739814715.677;200;15.91;46985.60
1739814715.727;200;14.01;38842.33
1739814715.777;200;14.01;38842.33
1739814715.827;200;15.20;43957.00
1739814715.877;200;15.20;43957.00
1739814715.927;200;14.78;42149.87
1739814715.978;200;14.78;42149.87
1739814716.028;200;14.77;42081.87
1739814716.077;200;14.77;42081.87
1739814716.327;200;14.22;39712.80
1739814716.377;200;14.22;39712.80
1739814716.428;200;15.15;43703.33
1739814716.479;200;15.15;43703.33
1739814716.829;200;13.99;38755.27
1739814716.879;200;13.99;38755.27
1739814716.929;200;14.40;40515.20
1739814716.979;200;14.40;40515.20
1739814717.029;200;13.70;37493.87
1739814717.079;200;13.70;37493.87
1739814717.129;200;14.06;39042.13
1739814717.178;200;14.06;39042.13
1739814717.328;200;13.90;38347.00
1739814717.378;200;13.90;38347.00
1739814717.428;200;15.04;43236.93
1739814717.479;200;15.04;43236.93
1739814717.529;200;13.95;38564.13
1739814717.579;200;13.95;38564.13
1739814717.628;200;13.95;38562.00
1739814717.679;200;13.95;38562.00
1739814717.728;200;13.78;37817.07
1739814717.779;200;13.78;37817.07
1739814717.829;200;14.29;40025.87
1739814717.879;200;14.29;40025.87
1739814717.929;200;15.17;43822.73
1739814717.979;200;15.17;43822.73
1739814718.029;200;14.73;41941.07
1739814718.079;200;14.73;41941.07
1739814718.129;200;14.60;41382.93
1739814718.179;200;14.60;41382.93
1739814718.229;200;15.53;45355.73
1739814718.279;200;15.53;45355.73
1739814718.328;200;15.87;46800.67
1739814718.379;200;15.87;46800.67
1739814718.429;200;16.28;48582.67
1739814718.479;200;16.28;48582.67
1739814718.529;200;15.49;45194.80
1739814718.579;200;15.49;45194.80
1739814726.643;200;14.55;41155.60
1739814726.693;200;14.55;41155.60
1739814726.744;200;14.63;41477.33
1739814726.794;200;14.63;41477.33
1739814726.844;200;13.78;37822.67
1739814726.894;200;13.78;37822.67
1739814726.944;200;14.65;41584.80
1739814726.995;200;14.65;41584.80
1739814727.595;200;13.76;37748.27
1739814727.845;200;13.88;38285.13
1739814727.895;200;14.19;39602.67
1739814727.995;200;14.45;40712.80
1739814728.045;200;14.45;40712.80
1739814728.145;200;15.23;44052.67
1739814728.196;200;16.03;47524.27
1739814728.346;200;15.56;45470.40
1739814728.395;200;15.56;45470.40
1739814728.745;200;13.97;38675.20
1739814728.795;200;13.97;38675.20
1739814729.047;200;14.06;39061.27
1739814729.097;200;14.06;39061.27
1739814729.347;200;14.77;42097.07
1739814729.397;200;14.77;42097.07
1739814729.448;200;14.34;40245.80
1739814729.498;200;14.34;40245.80
1739814729.548;200;14.11;39236.54
1739814729.598;200;14.11;39236.54
1739814729.749;200;13.90;38336.00
1739814729.798;200;13.90;38336.00
1739814838.968;300;13.73;37639.60
1739814839.019;300;13.73;37639.60
1739814839.068;300;13.95;38563.73
1739814839.118;300;13.95;38563.73
1739814839.168;300;14.69;41744.40
1739814839.218;300;14.69;41744.40
1739814839.269;300;14.30;40079.73
1739814839.319;300;14.30;40079.73
1739814839.370;300;15.33;44495.73
1739814839.420;300;15.33;44495.73
1739814839.469;300;13.98;38695.60
1739814839.519;300;13.98;38695.60
1739814839.569;300;15.69;46049.87
1739814839.620;300;15.69;46049.87
1739814839.670;300;13.75;37697.33
1739814839.720;300;13.75;37697.33
1739814839.770;300;14.09;39152.54
1739814839.820;300;14.09;39152.54
1739814839.870;300;14.56;41179.20
1739814839.921;300;14.56;41179.20
1739814839.971;300;15.89;46883.87
1739814840.020;300;15.13;43629.73
1739814840.071;300;15.13;43629.73
1739814840.120;300;15.03;43193.20
1739814840.170;300;14.18;39536.13
1739814840.221;300;14.32;40155.33
1739814840.271;300;14.14;39374.27
1739814840.321;300;15.64;45811.07
1739814840.370;300;15.64;45811.07
1739814840.421;300;16.23;48355.20
1739814840.470;300;16.23;48355.20
1739814840.521;300;14.29;40020.00
1739814840.571;300;14.29;40020.00
1739814840.620;300;15.43;44914.93
1739814840.671;300;14.74;41979.60
1739814840.721;300;15.93;47069.80
1739814840.771;300;15.93;47069.80
1739814840.821;300;14.44;40691.60
1739814840.872;300;15.44;44958.67
1739814840.921;300;14.88;42566.93
1739814840.971;300;14.99;43049.07
1739814841.021;300;14.99;43049.07
1739814841.072;300;14.21;39684.80
1739814841.122;300;14.21;39684.80
1739814841.171;300;15.32;44440.60
1739814841.222;300;15.32;44440.60
1739814841.272;300;15.70;46087.20
1739814841.322;300;15.70;46087.20
1739814841.372;300;14.63;41487.33
1739814841.422;300;14.63;41487.33
1739814841.471;300;15.08;43403.73
1739814841.521;300;14.66;41616.54
1739814841.572;300;14.66;41616.54
1739814841.923;300;14.09;39177.20
1739814841.972;300;14.09;39177.20
1739814842.022;300;13.82;38028.27
1739814842.072;300;13.87;38230.13
1739814842.122;300;15.21;43964.20
1739814842.172;300;15.21;43964.20
1739814842.223;300;16.20;48239.20
1739814842.272;300;16.20;48239.20
1739814850.247;300;14.05;38979.60
1739814850.297;300;14.05;38979.60
1739814850.347;300;13.88;38248.80
1739814850.397;300;13.88;38248.80
1739814850.447;300;14.52;41038.80
1739814850.497;300;14.52;41038.80
1739814850.547;300;13.72;37577.87
1739814850.597;300;13.72;37577.87
1739814850.647;300;14.82;42296.80
1739814850.697;300;14.82;42296.80
1739814850.748;300;14.89;42592.40
1739814850.798;300;14.89;42592.40
1739814850.848;300;14.07;39068.54
1739814850.898;300;14.07;39068.54
1739814850.947;300;14.28;40005.87
1739814850.998;300;14.28;40005.87
1739814851.048;300;15.77;46407.87
1739814851.098;300;15.77;46407.87
1739814851.148;300;14.41;40551.00
1739814851.198;300;14.13;39346.54
1739814851.249;300;15.22;44043.20
1739814851.299;300;14.82;42320.13
1739814851.399;300;15.61;45707.40
1739814851.448;300;13.98;38708.93
1739814851.498;300;13.98;38708.93
1739814851.552;300;16.17;48123.93
1739814851.600;300;13.90;38346.54
1739814851.650;300;13.90;38346.54
1739814851.700;300;15.08;43417.87
1739814851.749;300;15.08;43417.87
1739814851.800;300;13.95;38565.87
1739814851.850;300;13.95;38565.87
1739814852.300;300;13.94;38518.93
1739814852.351;300;13.94;38518.93
1739814852.400;300;14.54;41118.27
1739814852.451;300;14.54;41118.27
1739814852.500;300;13.79;37882.67
1739814852.551;300;13.79;37882.67
1739814852.852;300;13.98;38685.33
1739814862.287;300;14.27;39938.13
1739814862.337;300;14.27;39938.13
1739814862.690;300;13.86;38178.13
1739814862.740;300;13.86;38178.13
1739814863.091;300;14.39;40453.73
1739814863.141;300;14.39;40453.73
1739814863.291;300;14.45;40709.87
1739814863.342;300;14.45;40709.87
1739814863.392;300;14.35;40292.80
1739814863.441;300;14.35;40292.80
1739814863.791;300;13.70;37491.40
1739814863.842;300;13.70;37491.40
1739814863.891;300;14.08;39112.27
1739814863.941;300;14.08;39112.27
1739814864.592;300;13.86;38194.67
1739814864.642;300;13.86;38194.67
1739814864.691;300;15.29;44321.00
1739814864.741;300;15.29;44321.00
1739814864.791;300;15.70;46106.73
1739814864.841;300;15.70;46106.73
1739814864.891;300;15.52;45329.27
1739814864.941;300;15.52;45329.27
1739814864.991;300;14.23;39776.54
1739814865.041;300;14.23;39776.54
1739814865.091;300;13.88;38254.40
1739814865.142;300;13.88;38254.40
