UnixTimestamp;Microseconds;MilliAmpere;BaseValue
1725352252.797;500;1.00
1725352252.846;500;1.00
1725352252.897;500;1.00
1725352252.947;500;1.00
1725352252.996;500;1.00
1725352253.048;500;1.00
1725352253.097;500;1.00
1725352253.148;500;1.00
1725352253.198;500;1.00
1725352253.249;500;1.00
1725352253.298;500;1.00
1725352253.348;500;1.00
1725352253.399;500;1.00
1725352253.448;500;1.00
1725352253.499;500;1.00
1725352258.598;1;40.00
1725352258.648;1;40.00
1725352258.698;1;40.00
1725352258.749;1;40.00
1725352258.799;1;40.00
1725352258.849;1;40.00
1725352258.898;1;40.00
1725352258.949;1;40.00
1725352258.999;1;40.00
1725352259.050;1;40.00
1725352259.099;1;40.00
1725352259.149;1;40.00
1725352259.200;1;40.00
1725352259.249;1;40.00
1725352259.299;1;40.00
1725352259.350;1;40.00
1725352756.795;50;18.82;33920.00
1725352756.845;50;19.24;34282.80
1725352756.895;50;19.24;34282.80
1725352756.944;50;19.24;34282.80
1725352756.995;50;19.24;34282.80
1725352757.045;50;22.22;36888.54
1725352757.095;50;24.01;38445.60
1725352757.145;50;24.01;38445.60
1725352757.195;50;24.01;38445.60
1725352757.247;50;21.10;35911.07
1725352757.296;50;19.22;34269.46
1725352757.346;50;19.77;34745.87
1725352757.396;50;19.77;34745.87
1725352757.446;50;23.32;37848.87
1725352757.496;50;23.83;38286.54
1725352757.546;50;18.82;33920.54
1725352757.597;50;18.82;33920.54
1725352757.646;50;18.82;33920.54
1725352757.697;50;19.24;34288.07
1725352757.896;50;19.62;34615.87
1725352758.147;50;18.72;33828.40
1725352758.347;50;19.42;34442.93
1725352758.548;50;20.22;35137.60
1725352758.598;50;20.22;35137.60
1725352758.648;50;20.22;35137.60
1725352758.699;50;20.22;35137.60
1725352758.748;50;21.31;36088.13
1725352758.799;50;21.31;36088.13
1725352758.849;50;21.31;36088.13
1725352758.899;50;21.00;35823.46
1725352758.949;50;20.08;35015.60
1725352759.000;50;20.08;35015.60
1725352759.049;50;20.08;35015.60
1725352759.100;50;19.44;34464.46
1725352759.150;50;21.92;36624.40
1725352759.199;50;21.92;36624.40
1725352759.249;50;21.92;36624.40
1725352759.300;50;20.35;35255.33
1725352759.349;50;21.98;36679.07
1725352759.400;50;23.25;37781.00
1725352759.450;50;23.25;37781.00
1725352759.500;50;23.25;37781.00
1725352759.550;50;23.76;38225.33
1725352759.601;50;22.85;37433.07
1725352759.651;50;22.85;37433.07
1725352759.700;50;22.85;37433.07
1725352759.752;50;24.31;38710.00
1725352759.802;50;23.26;37789.33
1725352759.851;50;18.97;34050.00
1725352759.902;50;18.97;34050.00
1725352759.952;50;18.97;34050.00
1725352760.002;50;24.48;38857.33
1725352760.051;50;21.62;36361.46
1725352760.102;50;21.62;36361.46
1725352760.151;50;21.62;36361.46
1725352760.202;50;21.62;36361.46
1725352760.251;50;19.35;34383.73
1725352760.303;50;19.35;34383.73
1725352760.352;50;19.35;34383.73
1725352760.403;50;19.35;34383.73
1725352760.452;50;18.84;33936.00
1725352760.503;50;20.95;35777.87
1725352760.552;50;20.95;35777.87
1725352760.603;50;20.95;35777.87
1725352760.652;50;19.16;34213.80
1725352760.703;50;20.09;35031.20
1725352760.752;50;22.62;37233.73
1725352760.803;50;22.62;37233.73
1725352760.853;50;22.62;37233.73
1725352760.903;50;22.62;37233.73
1725352760.952;50;22.98;37549.46
1725352761.003;50;21.83;36547.46
1725352761.053;50;21.83;36547.46
1725352761.103;50;21.83;36547.46
1725352761.152;50;20.27;35180.27
1725352761.354;50;19.35;34385.33
1725352761.405;50;19.35;34385.33
1725352761.454;50;19.35;34385.33
1725352761.506;50;19.35;34385.33
1725352761.555;50;23.10;37656.67
1725352761.605;50;21.90;36602.27
1725352761.656;50;21.90;36602.27
1725352761.706;50;22.32;36975.87
1725352774.859;50;20.34;35242.13
1725352774.910;50;19.23;34279.87
1725352774.960;50;19.23;34279.87
1725352775.011;50;19.23;34279.87
1725352775.068;50;22.20;36869.07
1725352775.115;50;19.74;34720.00
1725352775.166;50;19.74;34720.00
1725352775.217;50;19.74;34720.00
1725352775.317;50;24.26;38665.33
1725352775.366;50;22.14;36819.33
1725352775.416;50;22.14;36819.33
1725352775.467;50;22.14;36819.33
1725352775.517;50;20.70;35559.07
1725352775.567;50;23.55;38049.54
1725352775.617;50;19.74;34720.54
1725352775.666;50;19.74;34720.54
1725352775.716;50;19.74;34720.54
1725352775.767;50;24.65;39007.33
1725352775.817;50;19.34;34370.00
1725352775.867;50;19.34;34370.00
1725352775.918;50;19.34;34370.00
1725352775.968;50;19.34;34370.00
1725352776.018;50;24.39;38774.93
1725352776.068;50;18.73;33843.13
1725352776.118;50;18.73;33843.13
1725352776.168;50;18.73;33843.13
1725352776.218;50;18.73;33843.13
1725352776.268;50;19.12;34178.80
1725352776.318;50;22.99;37554.27
1725352776.369;50;21.05;35866.93
1725352776.420;50;21.05;35866.93
1725352776.469;50;21.05;35866.93
1725352776.519;50;20.73;35584.67
1725352776.569;50;18.74;33849.87
1725352776.619;50;18.74;33849.87
1725352776.669;50;18.74;33849.87
1725352776.720;50;18.74;33849.87
1725352776.769;50;20.56;35438.33
1725352776.819;50;22.62;37230.93
1725352776.869;50;22.62;37230.93
1725352776.919;50;22.62;37230.93
1725352776.969;50;19.05;34120.93
1725352777.020;50;20.46;35347.80
1725352777.069;50;20.46;35347.80
1725352777.119;50;20.46;35347.80
1725352777.170;50;20.46;35347.80
1725352777.220;50;21.77;36491.60
1725352777.270;50;21.62;36364.13
1725352777.320;50;21.62;36364.13
1725352777.370;50;21.62;36364.13
1725352777.420;50;21.62;36364.13
1725352777.470;50;23.80;38264.54
1725352777.521;50;19.47;34484.80
1725352777.570;50;20.24;35161.07
1725352777.620;50;20.24;35161.07
1725352777.671;50;20.24;35161.07
1725352777.721;50;20.68;35543.13
1725352777.771;50;24.22;38632.13
1725352777.822;50;19.59;34593.87
1725352777.871;50;19.59;34593.87
1725352777.922;50;19.59;34593.87
1725352777.971;50;19.59;34593.87
1725352778.021;50;21.99;36688.00
1725352778.073;50;23.55;38048.40
1725352778.122;50;23.55;38048.40
1725352778.172;50;23.55;38048.40
1725352778.222;50;21.11;35919.20
1725352778.422;50;24.29;38689.07
1725352778.872;50;19.87;34837.00
1725352778.923;50;19.26;34304.00
1725352779.123;50;22.34;36986.93
1725352779.175;50;20.12;35049.33
1725352779.225;50;20.12;35049.33
1725352779.275;50;20.12;35049.33
1725352779.375;50;21.80;36518.13
1725352779.425;50;21.80;36518.13
1725352779.475;50;21.80;36518.13
1725352779.526;50;21.80;36518.13
1725352779.576;50;21.00;35822.40
1725352779.626;50;20.50;35387.67
1725352779.677;50;20.50;35387.67
1725352779.727;50;20.50;35387.67
1725352779.785;50;24.45;38833.33
1725352779.831;50;21.52;36273.33
1725352779.882;50;21.52;36273.33
1725352779.932;50;21.52;36273.33
1725352779.981;50;22.27;36930.40
1725352780.031;50;20.46;35354.27
1725352780.081;50;21.93;36628.80
1725352780.133;50;19.89;34854.00
1725352780.183;50;19.89;34854.00
1725352780.232;50;19.89;34854.00
1725352780.282;50;19.44;34464.13
1725352780.333;50;21.50;36255.07
1725352780.382;50;21.50;36255.07
1725352780.433;50;21.50;36255.07
1725352780.484;50;24.01;38445.20
1725352780.533;50;20.68;35544.93
1725352780.583;50;18.89;33980.87
1725352780.634;50;18.89;33980.87
1725352780.683;50;18.89;33980.87
1725352780.735;50;19.09;34156.40
1725352780.785;50;19.75;34733.87
1725352793.806;50;19.03;34104.00
1725352793.857;50;19.03;34104.00
1725352793.907;50;19.03;34104.00
1725352793.957;50;19.41;34435.20
1725352794.006;50;23.97;38408.33
1725352794.057;50;22.88;37459.73
1725352794.107;50;22.88;37459.73
1725352794.157;50;22.88;37459.73
1725352794.207;50;20.43;35327.46
1725352794.258;50;23.58;38073.54
1725352794.308;50;19.82;34790.60
1725352794.357;50;19.82;34790.60
1725352794.407;50;19.82;34790.60
1725352794.457;50;23.28;37813.33
1725352794.508;50;24.22;38634.27
1725352794.558;50;24.22;38634.27
1725352794.608;50;24.22;38634.27
1725352794.657;50;22.02;36713.27
1725352794.709;50;22.11;36787.87
1725352794.759;50;24.05;38484.13
1725352794.809;50;24.05;38484.13
1725352794.859;50;24.05;38484.13
1725352794.909;50;23.35;37869.33
1725352794.959;50;22.84;37423.87
1725352795.011;50;18.81;33910.40
1725352795.062;50;19.59;34592.00
1725352795.111;50;19.59;34592.00
1725352795.162;50;19.59;34592.00
1725352795.211;50;19.59;34592.00
1725352795.261;50;18.95;34030.27
1725352795.312;50;21.26;36052.27
1725352795.361;50;21.44;36208.80
1725352795.411;50;21.44;36208.80
1725352795.462;50;21.44;36208.80
1725352795.511;50;21.60;36344.67
1725352795.563;50;21.45;36213.87
1725352795.612;50;22.73;37333.20
1725352795.663;50;22.73;37333.20
1725352795.714;50;22.73;37333.20
1725352795.763;50;21.86;36569.07
1725352795.814;50;22.70;37300.54
1725352795.865;50;21.68;36416.13
1725352795.914;50;21.68;36416.13
1725352795.965;50;21.68;36416.13
1725352796.015;50;23.67;38152.87
1725352796.065;50;23.55;38047.60
1725352796.115;50;23.86;38317.60
1725352796.164;50;23.86;38317.60
1725352796.214;50;23.86;38317.60
1725352796.265;50;23.86;38317.60
1725352796.315;50;23.86;38317.60
1725352796.364;50;23.64;38122.93
1725352796.414;50;23.89;38344.40
1725352796.465;50;22.98;37544.80
1725352796.515;50;22.00;36697.33
1725352796.565;50;22.00;36697.33
1725352796.615;50;22.00;36697.33
1725352796.665;50;19.62;34613.07
1725352796.715;50;18.80;33898.73
1725352796.765;50;23.97;38408.80
1725352796.816;50;23.97;38408.80
1725352796.866;50;23.97;38408.80
1725352796.916;50;23.99;38426.40
1725352796.967;50;24.61;38970.27
1725352797.016;50;22.48;37112.20
1725352797.066;50;22.69;37292.27
1725352797.116;50;22.69;37292.27
1725352797.166;50;22.69;37292.27
1725352797.218;50;22.69;37292.27
1725352797.267;50;22.68;37283.87
1725352797.318;50;23.39;37902.54
1725352797.368;50;21.00;35816.93
1725352797.417;50;22.33;36982.67
1725352797.467;50;22.33;36982.67
1725352797.518;50;22.33;36982.67
1725352797.568;50;22.61;37226.54
1725352797.617;50;19.47;34487.73
1725352797.667;50;23.81;38275.46
1725352797.717;50;22.98;37546.54
1725352797.767;50;22.98;37546.54
1725352797.817;50;22.98;37546.54
1725352797.867;50;22.55;37172.40
1725352797.918;50;20.06;34999.46
1725352797.968;50;22.34;36989.07
1725352798.017;50;22.34;36989.07
1725352798.067;50;22.34;36989.07
1725352798.117;50;20.77;35619.60
1725352798.168;50;23.87;38324.00
1725352798.218;50;23.61;38097.73
1725352798.269;50;23.61;38097.73
1725352798.319;50;23.61;38097.73
1725352798.369;50;23.51;38009.07
1725352798.418;50;23.89;38346.27
1725352798.468;50;23.25;37780.67
1725352798.519;50;23.25;37780.67
1725352798.569;50;23.25;37780.67
1725352798.619;50;22.45;37085.20
1725352798.669;50;22.44;37077.20
1725352798.719;50;21.05;35865.46
1725352798.769;50;21.05;35865.46
1725352798.820;50;21.05;35865.46
1725352798.870;50;19.61;34606.93
1725352798.920;50;20.13;35058.13
1725352798.970;50;20.96;35787.46
1725352799.020;50;20.96;35787.46
1725352799.070;50;20.96;35787.46
1725352799.121;50;21.22;36012.54
1725352799.170;50;23.23;37768.40
1725352799.220;50;23.23;37768.40
1725352799.271;50;23.23;37768.40
1725352799.320;50;22.96;37532.93
1725352799.370;50;21.42;36183.46
1725352799.423;50;21.71;36438.07
1725352799.470;50;21.49;36246.67
1725352799.520;50;21.49;36246.67
1725352799.572;50;21.49;36246.67
1725352799.621;50;21.54;36291.87
1725352799.671;50;19.72;34707.87
1725352799.722;50;20.57;35442.93
1725352799.771;50;19.06;34125.80
1725352799.821;50;19.06;34125.80
1725352799.873;50;19.06;34125.80
1725352799.922;50;23.08;37638.07
1725352799.973;50;22.02;36713.73
1725352800.023;50;19.26;34299.20
1725352800.073;50;19.26;34299.20
1725352800.122;50;19.26;34299.20
1725352800.173;50;21.08;35887.60
1725352800.223;50;18.71;33821.33
1725352800.273;50;19.75;34734.93
1725352800.322;50;19.75;34734.93
1725352800.373;50;19.75;34734.93
1725352800.422;50;20.75;35599.46
1725352800.472;50;23.79;38256.54
1725352800.522;50;22.93;37504.80
1725352800.572;50;22.83;37419.46
1725352800.622;50;22.83;37419.46
1725352800.673;50;22.83;37419.46
1725352800.723;50;23.58;38075.73
1725352800.775;50;22.53;37152.40
1725352996.497;350;19.79;34762.54
1725352996.547;350;19.11;34171.67
1725352996.596;350;19.11;34171.67
1725352996.647;350;19.11;34171.67
1725352996.697;350;19.11;34171.67
1725352996.747;350;21.91;36611.07
1725352996.797;350;20.20;35122.93
1725352996.847;350;20.20;35122.93
1725352996.897;350;20.20;35122.93
1725352996.948;350;23.86;38319.07
1725352996.997;350;24.02;38452.13
1725352997.048;350;24.02;38452.13
1725352997.098;350;24.02;38452.13
1725352997.147;350;24.20;38613.20
1725352997.198;350;22.99;37559.73
1725352997.247;350;23.85;38308.27
1725352997.298;350;23.85;38308.27
1725352997.347;350;23.85;38308.27
1725352997.397;350;23.12;37670.40
1725352997.448;350;20.52;35400.67
1725352997.497;350;21.97;36667.87
1725352997.548;350;21.97;36667.87
1725352997.597;350;21.97;36667.87
1725352997.648;350;22.15;36828.67
1725352997.698;350;20.38;35277.33
1725352997.748;350;18.70;33816.67
1725352997.797;350;18.70;33816.67
1725352997.848;350;18.70;33816.67
1725352997.897;350;18.70;33816.67
1725352997.947;350;20.55;35426.80
1725352997.997;350;24.65;39001.73
1725352998.047;350;24.35;38739.73
1725352998.097;350;24.35;38739.73
1725352998.148;350;24.35;38739.73
1725352998.198;350;22.63;37243.60
1725352998.247;350;20.52;35401.60
1725352998.297;350;20.52;35401.60
1725352998.353;350;20.52;35401.60
1725352998.400;350;20.52;35401.60
1725352998.450;350;22.81;37403.00
1725352998.500;350;24.16;38574.80
1725352998.550;350;24.16;38574.80
1725352998.600;350;24.16;38574.80
1725352998.650;350;24.16;38574.80
1725352998.701;350;19.90;34860.93
1725352998.751;350;24.02;38459.46
1725352998.801;350;21.96;36660.54
1725352998.851;350;21.96;36660.54
1725352998.902;350;21.96;36660.54
1725352998.951;350;24.52;38893.87
1725352999.002;350;23.22;37753.46
1725352999.053;350;20.93;35759.87
1725352999.103;350;20.93;35759.87
1725352999.153;350;20.93;35759.87
1725352999.203;350;20.89;35724.54
1725352999.254;350;23.91;38356.40
1725352999.304;350;23.98;38418.80
1725352999.354;350;23.98;38418.80
1725352999.403;350;23.98;38418.80
1725352999.454;350;24.22;38632.80
1725352999.510;350;24.33;38723.73
1725352999.557;350;19.49;34502.20
1725352999.606;350;19.49;34502.20
1725352999.657;350;19.49;34502.20
1725352999.706;350;19.88;34839.93
1725352999.757;350;23.77;38240.93
1725352999.807;350;24.73;39074.40
1725352999.857;350;24.73;39074.40
1725352999.906;350;24.73;39074.40
1725352999.956;350;24.73;39074.40
1725353000.007;350;18.81;33914.00
1725353000.058;350;23.84;38298.80
1725353000.107;350;23.84;38298.80
1725353000.158;350;23.84;38298.80
1725353000.208;350;23.84;38298.80
1725353000.257;350;23.78;38244.93
1725353000.307;350;19.29;34330.93
1725353000.359;350;19.29;34330.93
1725353000.409;350;19.29;34330.93
1725353000.459;350;19.29;34330.93
1725353000.509;350;23.78;38243.20
1725353000.559;350;21.09;35896.54
1725353000.609;350;20.76;35609.87
1725353000.660;350;20.76;35609.87
1725353000.710;350;20.76;35609.87
1725353000.760;350;21.70;36432.13
1725353000.811;350;23.92;38372.54
1725353000.861;350;23.55;38043.27
1725353000.911;350;24.51;38880.93
1725353000.961;350;24.51;38880.93
1725353001.010;350;24.51;38880.93
1725353001.061;350;23.22;37758.27
1725353001.111;350;20.82;35660.67
1725353001.161;350;23.94;38385.60
1725353001.211;350;23.97;38410.54
1725353001.261;350;23.97;38410.54
1725353001.311;350;23.97;38410.54
1725353001.361;350;23.41;37921.20
1725353001.411;350;22.81;37396.93
1725353001.461;350;23.17;37718.00
1725353001.511;350;23.17;37718.00
1725353001.562;350;23.17;37718.00
1725353001.611;350;21.79;36514.13
1725353001.661;350;24.55;38920.40
1725353001.713;350;19.78;34759.07
1725353001.764;350;19.78;34759.07
1725353001.813;350;19.78;34759.07
1725353001.863;350;19.78;34759.07
1725353001.913;350;23.34;37866.54
1725353001.963;350;24.31;38710.93
1725353002.015;350;21.72;36452.54
1725353002.065;350;24.42;38808.27
1725353002.115;350;24.42;38808.27
1725353002.165;350;24.42;38808.27
1725353002.214;350;24.42;38808.27
1725353002.265;350;21.07;35879.60
1725353002.315;350;23.97;38409.07
1725353002.365;350;24.02;38457.20
1725353002.415;350;21.11;35917.27
1725353002.466;350;21.11;35917.27
1725353002.515;350;21.11;35917.27
1725353002.566;350;24.40;38790.27
1725353002.615;350;24.12;38543.07
1725353002.666;350;24.30;38698.13
1725353002.715;350;23.99;38428.93
1725353002.766;350;23.99;38428.93
1725353002.816;350;23.99;38428.93
1725353002.865;350;24.04;38474.67
1725353002.916;350;24.16;38578.67
1725353002.966;350;19.58;34586.67
1725353017.088;350;21.01;35829.80
1725353017.288;350;19.14;34196.40
1725353017.338;350;21.13;35931.73
1725353017.388;350;21.13;35931.73
1725353017.438;350;21.13;35931.73
1725353017.489;350;24.08;38503.73
1725353017.539;350;24.26;38661.07
1725353017.588;350;24.26;38661.07
1725353017.640;350;24.39;38777.20
1725353017.690;350;22.54;37163.87
1725353017.740;350;21.04;35860.00
1725353017.790;350;21.04;35860.00
1725353017.839;350;21.04;35860.00
1725353017.890;350;20.05;34993.87
1725353017.940;350;24.37;38764.54
1725353017.990;350;24.37;38764.54
1725353018.040;350;24.37;38764.54
1725353018.090;350;23.77;38240.40
1725353018.140;350;18.76;33864.93
1725353018.190;350;18.76;33864.93
1725353018.240;350;18.76;33864.93
1725353018.297;350;18.76;33864.93
1725353018.345;350;18.76;33864.93
1725353018.395;350;19.98;34930.13
1725353018.445;350;21.49;36245.07
1725353018.495;350;20.58;35457.33
1725353018.545;350;20.58;35457.33
1725353018.595;350;20.58;35457.33
1725353018.645;350;24.10;38525.46
1725353018.695;350;19.55;34555.67
1725353018.745;350;23.51;38011.07
1725353018.795;350;23.51;38011.07
1725353018.845;350;23.51;38011.07
1725353018.895;350;19.52;34534.27
1725353018.945;350;19.69;34680.00
1725353018.996;350;21.00;35825.07
1725353019.045;350;21.00;35825.07
1725353019.096;350;21.00;35825.07
1725353019.146;350;23.31;37836.54
1725353019.197;350;24.39;38777.33
1725353019.246;350;23.77;38234.80
1725353019.296;350;23.77;38234.80
1725353019.347;350;23.77;38234.80
1725353019.397;350;23.90;38350.54
1725353019.446;350;23.75;38223.73
1725353019.497;350;23.75;38223.73
1725353019.547;350;23.75;38223.73
1725353019.596;350;23.75;38223.73
1725353019.646;350;23.80;38266.80
1725353019.697;350;18.92;34007.46
1725353019.747;350;23.80;38265.60
1725353019.797;350;23.80;38265.60
1725353019.848;350;23.80;38265.60
1725353019.897;350;21.95;36652.00
1725353019.949;350;19.00;34079.60
1725353019.998;350;19.00;34079.60
1725353020.048;350;19.00;34079.60
1725353020.099;350;19.00;34079.60
1725353020.149;350;22.71;37316.46
1725353020.199;350;22.07;36756.00
1725353020.249;350;24.64;38996.54
1725353020.299;350;24.64;38996.54
1725353020.348;350;24.64;38996.54
1725353020.399;350;23.74;38214.80
1725353020.456;350;23.79;38250.93
1725353020.503;350;23.79;38250.93
1725353020.553;350;23.79;38250.93
1725353020.603;350;23.79;38250.93
1725353020.653;350;23.81;38273.20
1725353020.703;350;23.40;37918.54
1725353020.753;350;24.12;38539.60
1725353020.803;350;24.12;38539.60
1725353020.852;350;24.12;38539.60
1725353020.903;350;24.12;38539.60
1725353020.952;350;18.98;34060.40
1725353021.053;350;22.88;37460.13
1725353021.103;350;22.69;37297.07
1725353021.153;350;22.69;37297.07
1725353021.203;350;22.69;37297.07
1725353021.254;350;22.69;37297.07
1725353021.303;350;23.16;37707.60
1725353021.353;350;22.20;36869.00
1725353021.404;350;19.11;34174.80
1725353021.453;350;19.86;34825.13
1725353021.503;350;19.86;34825.13
1725353021.555;350;19.86;34825.13
1725353021.605;350;20.39;35290.20
1725353021.656;350;23.93;38378.67
1725353021.709;350;23.93;38378.67
1725353021.756;350;22.42;37060.27
1725353021.806;350;22.42;37060.27
1725353021.856;350;22.42;37060.27
1725353021.907;350;19.24;34289.87
1725353021.957;350;24.21;38625.07
1725353022.006;350;23.72;38189.87
1725353022.057;350;24.39;38782.80
1725353022.107;350;24.39;38782.80
1725353022.157;350;24.39;38782.80
1725353022.207;350;21.87;36578.54
1725353022.257;350;22.45;37083.20
1725353022.306;350;21.40;36173.33
1725353022.356;350;21.82;36538.93
1725353022.408;350;21.82;36538.93
1725353022.457;350;21.82;36538.93
1725353022.508;350;23.92;38368.27
1725353022.557;350;22.09;36770.93
1725353022.608;350;22.25;36913.07
1725353022.657;350;22.25;36913.07
1725353022.707;350;22.25;36913.07
1725353022.757;350;23.87;38327.60
1725353022.807;350;23.52;38020.13
1725353022.858;350;21.48;36238.60
1725353022.909;350;21.48;36238.60
1725353022.958;350;21.48;36238.60
1725353023.008;350;21.48;36238.60
1725353023.060;350;21.22;36017.33
1725353023.109;350;23.89;38343.07
1725353023.160;350;24.39;38775.73
1725353023.210;350;24.39;38775.73
1725353023.260;350;24.39;38775.73
1725353023.309;350;23.32;37842.00
1725353023.360;350;19.08;34145.87
1725353023.410;350;24.16;38573.87
1725353023.460;350;24.16;38573.87
1725353023.510;350;24.16;38573.87
1725353023.560;350;24.16;38573.87
1725353023.610;350;22.46;37097.07
1725353023.660;350;23.78;38242.40
1725353023.711;350;22.16;36832.67
1725353038.151;350;18.66;33782.93
1725353038.202;350;19.92;34878.60
1725353038.252;350;19.01;34089.07
1725353038.303;350;19.01;34089.07
1725353038.352;350;19.01;34089.07
1725353038.403;350;18.65;33770.54
1725353038.454;350;23.66;38142.67
1725353038.503;350;21.48;36237.73
1725353038.555;350;21.48;36237.73
1725353038.605;350;21.48;36237.73
1725353038.655;350;23.78;38249.73
1725353038.705;350;20.41;35310.80
1725353038.755;350;24.08;38511.46
1725353038.806;350;24.08;38511.46
1725353038.855;350;24.08;38511.46
1725353038.906;350;24.08;38504.27
1725353038.956;350;23.66;38145.60
1725353039.006;350;24.69;39037.87
1725353039.056;350;24.69;39037.87
1725353039.107;350;24.69;39037.87
1725353039.157;350;21.48;36241.60
1725353039.207;350;24.51;38880.67
1725353039.257;350;24.51;38880.67
1725353039.307;350;24.51;38880.67
1725353039.356;350;24.51;38880.67
1725353039.407;350;24.35;38743.46
1725353039.457;350;23.56;38052.80
1725353039.508;350;24.23;38635.20
1725353039.556;350;23.96;38404.93
1725353039.607;350;23.96;38404.93
1725353039.656;350;23.96;38404.93
1725353039.708;350;23.80;38259.87
1725353039.758;350;24.50;38874.67
1725353039.808;350;24.40;38787.20
1725353039.857;350;23.69;38170.40
1725353039.908;350;23.69;38170.40
1725353039.958;350;23.69;38170.40
1725353040.009;350;24.43;38811.93
1725353040.058;350;24.35;38742.93
1725353040.109;350;23.61;38099.46
1725353040.158;350;23.61;38099.46
1725353040.210;350;23.61;38099.46
1725353040.260;350;22.59;37208.93
1725353040.311;350;24.81;39143.46
1725353040.360;350;24.81;39143.46
1725353040.411;350;24.81;39143.46
1725353040.461;350;24.81;39143.46
1725353040.511;350;23.79;38251.07
1725353040.562;350;21.86;36572.60
1725353040.612;350;23.65;38133.73
1725353040.661;350;23.65;38133.73
1725353040.711;350;23.65;38133.73
1725353040.763;350;23.65;38133.73
1725353040.812;350;21.11;35914.00
1725353040.864;350;24.04;38471.20
1725353040.913;350;24.05;38483.20
1725353040.965;350;24.05;38483.20
1725353041.015;350;24.05;38483.20
1725353041.065;350;24.07;38502.54
1725353041.115;350;19.88;34841.07
1725353041.165;350;20.36;35262.13
1725353041.215;350;20.36;35262.13
1725353041.265;350;20.36;35262.13
1725353041.315;350;23.71;38184.40
1725353041.365;350;21.45;36216.13
1725353041.415;350;22.15;36823.33
1725353041.465;350;21.48;36238.54
1725353041.515;350;21.48;36238.54
1725353041.565;350;21.48;36238.54
1725353041.615;350;24.47;38852.13
1725353041.665;350;22.77;37367.60
1725353041.715;350;24.20;38613.46
1725353041.765;350;23.84;38297.73
1725353041.815;350;23.84;38297.73
1725353041.865;350;23.84;38297.73
1725353041.915;350;23.46;37968.93
1725353041.965;350;20.34;35247.60
1725353042.015;350;23.75;38220.80
1725353042.065;350;23.69;38169.87
1725353042.115;350;23.69;38169.87
1725353042.165;350;23.69;38169.87
1725353042.215;350;24.08;38510.40
1725353042.265;350;23.76;38232.27
1725353042.315;350;24.05;38481.33
1725353042.365;350;24.05;38481.33
1725353042.415;350;24.05;38481.33
1725353042.466;350;21.81;36528.67
1725353042.516;350;22.73;37329.07
1725353042.566;350;22.69;37291.73
1725353042.615;350;22.69;37291.73
1725353042.665;350;22.69;37291.73
1725353042.716;350;20.58;35451.73
1725353042.766;350;19.50;34512.87
1725353042.816;350;20.63;35497.54
1725353042.866;350;24.16;38576.54
1725353042.916;350;24.16;38576.54
1725353042.967;350;24.16;38576.54
1725353043.016;350;24.22;38626.67
1725353043.066;350;20.79;35635.40
1725353043.116;350;24.69;39038.13
1725353043.166;350;24.69;39038.13
1725353043.216;350;24.69;39038.13
1725353043.266;350;23.28;37809.33
1725353043.316;350;23.97;38410.54
1725353043.366;350;20.94;35765.87
1725353043.416;350;21.22;36014.67
1725353043.466;350;21.22;36014.67
1725353043.516;350;21.22;36014.67
1725353043.566;350;21.32;36104.67
1725353043.616;350;20.29;35198.13
1725353043.666;350;21.67;36406.40
1725353043.716;350;21.67;36406.40
1725353043.766;350;21.67;36406.40
1725353043.816;350;24.30;38698.93
1725353043.873;350;24.17;38583.87
1725353043.921;350;23.59;38084.13
1725353043.971;350;24.12;38541.33
1725353044.021;350;24.12;38541.33
1725353044.071;350;24.12;38541.33
1725353044.121;350;21.87;36578.20
1725353044.171;350;24.20;38614.00
1725353044.221;350;21.03;35843.46
1725353044.272;350;21.03;35843.46
1725353044.322;350;21.03;35843.46
1725353044.372;350;21.03;35843.46
1725353044.423;350;22.47;37103.20
1725353044.473;350;23.79;38259.33
1725353044.523;350;24.33;38724.60
1725353044.574;350;24.33;38724.60
1725353044.623;350;24.33;38724.60
1725353044.675;350;24.33;38724.60
1725353044.725;350;23.05;37606.67
1725353044.775;350;24.42;38804.80
1725353044.825;350;19.85;34820.13
1725353044.875;350;19.85;34820.13
1725353044.925;350;19.85;34820.13
1725353044.975;350;21.34;36115.33
1725353045.025;350;24.41;38795.87
1725353045.075;350;20.63;35502.80
1725353045.125;350;23.94;38388.54
1725353045.175;350;23.04;37596.67
1725353045.225;350;23.04;37596.67
1725353045.275;350;23.04;37596.67
1725353045.325;350;23.19;37733.33
1725353045.375;350;23.87;38325.07
1725353045.425;350;23.73;38199.07
1725353287.009;200;19.25;34297.13
1725353287.061;200;19.25;34297.13
1725353287.110;200;19.25;34297.13
1725353287.160;200;20.56;35441.07
1725353287.212;200;24.01;38448.40
1725353287.262;200;24.01;38448.40
1725353287.312;200;24.01;38448.40
1725353287.363;200;24.42;38808.80
1725353287.413;200;24.28;38681.33
1725353287.463;200;24.28;38681.33
1725353287.512;200;24.28;38681.33
1725353287.562;200;23.98;38418.54
1725353287.614;200;18.87;33964.67
1725353287.664;200;18.87;33964.67
1725353287.713;200;18.87;33964.67
1725353287.763;200;20.32;35229.20
1725353287.813;200;19.47;34485.46
1725353287.865;200;19.18;34233.07
1725353287.915;200;19.18;34233.07
1725353287.965;200;19.18;34233.07
1725353288.015;200;22.94;37516.00
1725353288.065;200;24.69;39041.33
1725353288.115;200;24.99;39300.54
1725353288.165;200;24.99;39300.54
1725353288.215;200;24.99;39300.54
1725353288.265;200;22.37;37014.46
1725353288.315;200;20.85;35690.40
1725353288.365;200;22.46;37092.40
1725353288.415;200;22.46;37092.40
1725353288.465;200;22.46;37092.40
1725353288.515;200;22.46;37092.40
1725353288.565;200;20.99;35814.54
1725353288.615;200;23.44;37946.13
1725353288.665;200;20.86;35698.60
1725353288.715;200;20.86;35698.60
1725353288.765;200;20.86;35698.60
1725353288.815;200;20.86;35698.60
1725353288.865;200;22.63;37245.46
1725353288.915;200;23.45;37962.13
1725353288.965;200;19.52;34526.27
1725353289.015;200;22.79;37379.20
1725353289.066;200;22.79;37379.20
1725353289.116;200;22.79;37379.20
1725353289.166;200;22.79;37379.20
1725353289.216;200;23.44;37947.20
1725353289.266;200;20.24;35158.80
1725353289.316;200;23.36;37882.93
1725353289.366;200;23.36;37882.93
1725353289.416;200;23.36;37882.93
1725353289.466;200;23.83;38293.60
1725353289.516;200;24.72;39062.67
1725353289.567;200;21.89;36599.73
1725353289.616;200;21.89;36599.73
1725353289.666;200;21.89;36599.73
1725353289.717;200;21.89;36599.73
1725353289.767;200;19.65;34643.07
1725353289.817;200;23.27;37801.20
1725353289.866;200;23.47;37978.67
1725353289.916;200;23.47;37978.67
1725353289.975;200;23.47;37978.67
1725353290.021;200;20.30;35206.40
1725353290.072;200;21.77;36493.46
1725353290.122;200;23.70;38173.80
1725353290.172;200;23.70;38173.80
1725353290.223;200;23.70;38173.80
1725353290.273;200;21.56;36307.46
1725353290.323;200;24.12;38541.07
1725353290.373;200;24.45;38830.13
1725353290.422;200;24.45;38830.13
1725353290.473;200;24.45;38830.13
1725353290.523;200;23.39;37902.60
1725353290.573;200;23.94;38388.54
1725353290.623;200;20.77;35622.27
1725353290.674;200;20.77;35622.27
1725353290.723;200;20.77;35622.27
1725353290.774;200;21.36;36133.13
1725353290.823;200;21.67;36405.60
1725353290.873;200;20.17;35093.87
1725353290.925;200;20.30;35210.07
1725353290.975;200;20.30;35210.07
1725353291.025;200;20.30;35210.07
1725353291.075;200;23.18;37722.87
1725353291.125;200;20.28;35195.60
1725353291.175;200;21.10;35908.80
1725353291.225;200;21.97;36665.20
1725353291.276;200;21.97;36665.20
1725353291.326;200;21.97;36665.20
1725353291.375;200;21.97;36665.20
1725353291.425;200;24.47;38850.54
1725353291.475;200;24.48;38860.67
1725353291.525;200;20.02;34966.46
1725353291.575;200;20.02;34966.46
1725353291.625;200;20.02;34966.46
1725353291.676;200;21.80;36517.60
1725353291.726;200;24.56;38930.40
1725353291.775;200;24.56;38930.40
1725353291.826;200;24.56;38930.40
1725353291.877;200;24.56;38930.40
1725353291.927;200;22.15;36822.00
1725353291.976;200;23.86;38316.13
1725353292.026;200;23.86;38316.13
1725353292.076;200;23.86;38316.13
1725353292.126;200;23.86;38316.13
1725353292.177;200;23.74;38213.60
1725353292.226;200;24.39;38776.13
1725353292.277;200;24.24;38646.13
1725353292.328;200;24.24;38646.13
1725353292.378;200;24.24;38646.13
1725353292.428;200;24.24;38646.13
1725353292.478;200;24.03;38461.07
1725353292.528;200;20.32;35231.60
1725353292.579;200;19.44;34458.80
1725353292.629;200;19.43;34449.60
1725353292.679;200;19.43;34449.60
1725353292.730;200;19.43;34449.60
1725353292.779;200;23.18;37724.00
1725353292.829;200;24.93;39249.07
1725353292.879;200;21.20;35995.87
1725353292.930;200;21.20;35995.87
1725353292.979;200;21.20;35995.87
1725353293.030;200;20.63;35495.20
1725353293.079;200;24.11;38530.40
1725353293.130;200;23.69;38171.60
1725353293.180;200;19.08;34145.07
1725353293.230;200;19.08;34145.07
1725353293.280;200;19.08;34145.07
1725353293.331;200;21.76;36480.33
1725353293.381;200;24.08;38507.20
1725353293.432;200;24.53;38902.27
1725353293.482;200;21.91;36614.00
1725353293.532;200;21.91;36614.00
1725353293.583;200;21.91;36614.00
1725353293.632;200;21.88;36585.46
1725353293.682;200;24.37;38763.60
1725353308.091;200;19.02;34095.07
1725353308.140;200;19.02;34095.07
1725353308.191;200;19.02;34095.07
1725353308.241;200;19.02;34095.07
1725353308.292;200;19.96;34914.13
1725353308.342;200;19.37;34403.46
1725353308.391;200;19.08;34146.40
1725353308.441;200;21.99;36681.33
1725353308.492;200;21.99;36681.33
1725353308.541;200;21.99;36681.33
1725353308.592;200;23.30;37826.54
1725353308.642;200;20.65;35512.27
1725353308.692;200;22.74;37342.93
1725353308.742;200;22.53;37160.00
1725353308.792;200;22.53;37160.00
1725353308.842;200;22.53;37160.00
1725353308.893;200;22.92;37492.93
1725353308.943;200;24.27;38674.67
1725353308.993;200;22.64;37255.20
1725353309.042;200;22.64;37255.20
1725353309.093;200;22.64;37255.20
1725353309.143;200;22.64;37255.20
1725353309.192;200;21.45;36216.40
1725353309.244;200;23.74;38214.67
1725353309.294;200;23.69;38169.73
1725353309.343;200;19.40;34427.20
1725353309.394;200;19.40;34427.20
1725353309.444;200;19.40;34427.20
1725353309.495;200;20.84;35679.60
1725353309.545;200;20.98;35803.33
1725353309.595;200;24.42;38807.87
1725353309.645;200;24.39;38782.27
1725353309.695;200;24.39;38782.27
1725353309.745;200;24.39;38782.27
1725353309.795;200;23.45;37962.67
1725353309.845;200;23.62;38109.33
1725353309.895;200;23.62;38109.33
1725353309.945;200;23.62;38109.33
1725353309.995;200;23.80;38267.60
1725353310.045;200;22.60;37220.00
1725353310.095;200;22.60;37220.00
1725353310.145;200;22.60;37220.00
1725353310.196;200;22.60;37220.00
1725353310.246;200;20.18;35105.20
1725353310.296;200;24.21;38623.87
1725353310.346;200;22.95;37523.33
1725353310.397;200;22.95;37523.33
1725353310.447;200;22.95;37523.33
1725353310.496;200;22.00;36689.87
1725353310.546;200;21.26;36051.40
1725353310.596;200;20.78;35627.07
1725353310.646;200;20.78;35627.07
1725353310.697;200;20.78;35627.07
1725353310.747;200;20.78;35627.07
1725353310.797;200;20.21;35127.87
1725353310.846;200;20.82;35662.40
1725353310.898;200;21.34;36120.00
1725353310.948;200;21.34;36120.00
1725353310.998;200;21.34;36120.00
1725353311.047;200;22.91;37488.93
1725353311.097;200;23.52;38018.00
1725353311.148;200;21.13;35935.20
1725353311.198;200;21.13;35935.20
1725353311.248;200;21.13;35935.20
1725353311.297;200;22.70;37301.00
1725353311.348;200;22.41;37050.80
1725353311.398;200;24.53;38904.27
1725353311.448;200;24.53;38904.27
1725353311.497;200;24.53;38904.27
1725353311.547;200;24.57;38938.80
1725353311.599;200;20.20;35120.13
1725353311.648;200;23.78;38244.80
1725353311.698;200;23.78;38244.80
1725353311.748;200;23.78;38244.80
1725353311.798;200;19.95;34909.46
1725353311.848;200;22.18;36853.07
1725353311.899;200;22.18;36853.07
1725353311.948;200;22.18;36853.07
1725353311.998;200;24.63;38983.87
1725353312.048;200;24.08;38512.00
1725353312.098;200;24.08;38512.00
1725353312.150;200;24.08;38512.00
1725353312.205;200;24.08;38512.00
1725353312.252;200;21.57;36322.33
1725353312.302;200;21.57;36322.33
1725353312.351;200;21.57;36322.33
1725353312.402;200;20.45;35340.54
1725353312.452;200;24.48;38853.46
1725353312.502;200;24.37;38760.27
1725353312.551;200;24.37;38760.27
1725353312.602;200;24.37;38760.27
1725353312.652;200;24.37;38760.27
1725353312.701;200;20.30;35211.07
1725353312.751;200;24.04;38476.54
1725353312.802;200;24.04;38476.54
1725353312.852;200;24.04;38476.54
1725353312.902;200;24.04;38476.54
1725353312.952;200;24.51;38887.46
1725353313.003;200;22.44;37080.13
1725353313.054;200;22.86;37439.87
1725353313.103;200;22.86;37439.87
1725353313.154;200;22.86;37439.87
1725353313.204;200;22.80;37394.13
1725353313.254;200;24.13;38553.60
1725353313.304;200;23.88;38335.46
1725353313.354;200;23.85;38306.40
1725353313.405;200;23.85;38306.40
1725353313.455;200;22.81;37398.80
1725353313.505;200;24.84;39170.40
1725353313.555;200;24.43;38815.33
1725353313.605;200;24.43;38815.33
1725353313.655;200;24.43;38815.33
1725353313.705;200;24.43;38815.33
1725353313.755;200;23.50;37999.13
1725353313.805;200;24.35;38747.73
1725353313.856;200;24.35;38747.73
1725353313.905;200;24.35;38747.73
1725353313.956;200;24.35;38747.73
1725353314.006;200;22.40;37038.27
1725353314.056;200;24.27;38677.46
1725353314.106;200;24.00;38437.46
1725353314.156;200;24.00;38437.46
1725353314.206;200;24.00;38437.46
1725353314.257;200;24.00;38437.46
1725353314.306;200;21.97;36670.27
1725353314.357;200;23.85;38307.46
1725353314.406;200;23.58;38068.00
1725353314.457;200;23.16;37702.27
1725353314.507;200;23.16;37702.27
1725353314.557;200;23.16;37702.27
1725353314.606;200;19.48;34498.54
1725353314.656;200;22.13;36810.27
1725353329.062;200;19.19;34243.46
1725353329.112;200;18.91;33998.07
1725353329.161;200;18.91;33998.07
1725353329.211;200;18.91;33998.07
1725353329.311;200;24.69;39039.33
1725353329.361;200;24.59;38949.87
1725353329.412;200;24.59;38949.87
1725353329.461;200;24.59;38949.87
1725353329.562;200;20.98;35802.80
1725353329.613;200;20.98;35802.80
1725353329.662;200;20.98;35802.80
1725353329.713;200;19.57;34573.60
1725353329.763;200;22.75;37349.60
1725353329.863;200;22.79;37386.93
1725353329.912;200;22.79;37386.93
1725353329.963;200;22.79;37386.93
1725353330.013;200;24.28;38680.80
1725353330.064;200;19.84;34809.33
1725353330.113;200;24.55;38914.80
1725353330.164;200;24.55;38914.80
1725353330.214;200;24.55;38914.80
1725353330.265;200;24.55;38914.80
1725353330.315;200;23.27;37805.07
1725353330.364;200;21.47;36227.87
1725353330.415;200;22.72;37321.13
1725353330.465;200;22.10;36780.73
1725353330.515;200;22.10;36780.73
1725353330.565;200;22.10;36780.73
1725353330.615;200;23.74;38213.60
1725353330.665;200;23.15;37695.73
1725353330.715;200;23.15;37695.73
1725353330.765;200;23.15;37695.73
1725353330.815;200;23.15;37695.73
1725353330.865;200;20.99;35811.46
1725353330.915;200;23.97;38413.46
1725353330.966;200;23.97;38413.46
1725353331.016;200;23.97;38413.46
1725353331.067;200;19.59;34591.33
1725353331.117;200;20.15;35079.60
1725353331.167;200;23.83;38292.54
1725353331.217;200;23.83;38292.54
1725353331.267;200;23.83;38292.54
1725353331.317;200;23.70;38179.60
1725353331.367;200;23.78;38248.80
1725353331.417;200;23.78;38248.80
1725353331.467;200;23.78;38248.80
1725353331.517;200;22.62;37232.27
1725353331.568;200;21.02;35840.00
1725353331.619;200;22.50;37126.54
1725353331.669;200;22.50;37126.54
1725353331.719;200;21.79;36509.60
1725353331.769;200;20.32;35226.54
1725353331.820;200;22.31;36967.87
1725353331.870;200;22.31;36967.87
1725353331.919;200;22.31;36967.87
1725353331.969;200;24.32;38718.00
1725353332.020;200;22.98;37545.07
1725353332.069;200;22.98;37545.07
1725353332.119;200;22.98;37545.07
1725353332.169;200;20.07;35011.87
1725353332.219;200;19.31;34344.00
1725353332.270;200;19.31;34344.00
1725353332.319;200;19.31;34344.00
1725353332.369;200;21.17;35967.60
1725353332.419;200;23.60;38088.27
1725353332.469;200;24.75;39092.40
1725353332.519;200;24.75;39092.40
1725353332.571;200;24.75;39092.40
1725353332.621;200;24.75;39092.40
1725353332.670;200;24.31;38707.46
1725353332.720;200;23.21;37745.46
1725353332.770;200;23.21;37745.46
1725353332.820;200;23.21;37745.46
1725353332.871;200;23.21;37745.46
1725353332.921;200;24.98;39290.40
1725353332.971;200;24.50;38873.46
1725353333.021;200;19.43;34453.33
1725353333.071;200;23.71;38184.27
1725353333.121;200;23.71;38184.27
1725353333.171;200;23.71;38184.27
1725353333.222;200;23.14;37691.20
1725353333.271;200;19.91;34870.67
1725353333.322;200;23.09;37645.07
1725353333.371;200;23.09;37645.07
1725353333.423;200;23.09;37645.07
1725353333.472;200;23.09;37645.07
1725353333.522;200;23.08;37636.80
1725353333.574;200;19.47;34488.54
1725353333.623;200;22.07;36751.33
1725353333.673;200;22.93;37505.20
1725353333.723;200;22.93;37505.20
1725353333.773;200;22.93;37505.20
1725353333.823;200;20.80;35644.54
1725353333.874;200;24.79;39127.00
1725353333.923;200;19.57;34576.54
1725353333.974;200;19.57;34576.54
1725353334.023;200;19.57;34576.54
1725353334.074;200;22.53;37155.33
1725353334.124;200;23.92;38365.87
1725353334.173;200;20.71;35567.13
1725353334.224;200;20.71;35567.13
1725353334.274;200;20.71;35567.13
1725353334.324;200;20.71;35567.13
1725353334.375;200;24.53;38903.07
1725353334.425;200;24.59;38950.67
1725353334.475;200;24.59;38950.67
1725353334.525;200;24.59;38950.67
1725353334.575;200;20.86;35701.46
1725353334.626;200;20.91;35742.13
1725353334.676;200;20.55;35426.54
1725353334.726;200;20.55;35426.54
1725353334.776;200;20.55;35426.54
1725353334.826;200;20.69;35546.67
1725353334.877;200;23.33;37850.93
1725353334.927;200;19.64;34636.73
1725353334.978;200;19.64;34636.73
1725353335.029;200;19.64;34636.73
1725353335.078;200;19.64;34636.73
1725353335.129;200;24.53;38904.00
1725353335.178;200;23.53;38029.87
1725353537.425;500;19.17;34225.07
1725353537.475;500;19.17;34225.07
1725353537.525;500;19.17;34225.07
1725353537.575;500;19.07;34139.20
1725353537.625;500;23.20;37742.40
1725353537.675;500;23.64;38128.00
1725353537.725;500;23.64;38128.00
1725353537.775;500;23.64;38128.00
1725353537.825;500;23.93;38380.93
1725353537.875;500;20.67;35537.20
1725353537.925;500;20.30;35212.93
1725353537.975;500;20.30;35212.93
1725353538.025;500;20.30;35212.93
1725353538.076;500;20.53;35414.40
1725353538.125;500;24.51;38879.46
1725353538.176;500;24.51;38879.46
1725353538.225;500;24.51;38879.46
1725353538.276;500;23.74;38208.00
1725353538.326;500;24.09;38518.80
1725353538.376;500;24.09;38518.80
1725353538.426;500;24.09;38518.80
1725353538.476;500;24.09;38518.80
1725353538.526;500;23.98;38420.93
1725353538.576;500;22.33;36984.54
1725353538.626;500;23.78;38245.87
1725353538.675;500;23.78;38245.87
1725353538.727;500;23.78;38245.87
1725353538.777;500;24.55;38921.73
1725353538.827;500;22.26;36922.93
1725353538.878;500;23.72;38191.87
1725353538.928;500;22.11;36785.33
1725353538.978;500;22.11;36785.33
1725353539.028;500;22.11;36785.33
1725353539.078;500;23.84;38298.93
1725353539.128;500;24.03;38466.80
1725353539.178;500;24.44;38820.67
1725353539.228;500;24.44;38820.67
1725353539.278;500;24.44;38820.67
1725353539.328;500;20.00;34946.40
1725353539.379;500;23.60;38092.00
1725353539.428;500;23.91;38358.93
1725353539.479;500;23.91;38358.93
1725353539.529;500;23.91;38358.93
1725353539.582;500;20.99;35814.33
1725353539.629;500;23.55;38048.54
1725353539.679;500;21.48;36242.54
1725353539.729;500;21.48;36242.54
1725353539.780;500;21.48;36242.54
1725353539.829;500;21.48;36242.54
1725353539.880;500;21.39;36165.73
1725353539.929;500;23.24;37778.13
1725353539.980;500;23.97;38414.00
1725353540.030;500;23.97;38414.00
1725353540.079;500;23.97;38414.00
1725353540.129;500;23.82;38280.93
1725353540.180;500;24.35;38743.73
1725353540.229;500;23.79;38252.80
1725353540.279;500;23.79;38252.80
1725353540.329;500;23.79;38252.80
1725353540.379;500;23.79;38252.80
1725353540.430;500;22.05;36741.07
1725353540.480;500;23.93;38380.67
1725353540.531;500;22.99;37553.33
1725353540.581;500;22.99;37553.33
1725353540.631;500;22.99;37553.33
1725353540.681;500;18.87;33964.87
1725353540.731;500;23.67;38147.46
1725353540.782;500;24.49;38862.27
1725353540.831;500;21.09;35903.87
1725353540.882;500;21.09;35903.87
1725353540.931;500;21.09;35903.87
1725353540.982;500;24.19;38604.54
1725353541.031;500;23.75;38219.46
1725353541.082;500;21.74;36466.54
1725353541.133;500;21.74;36466.54
1725353541.183;500;21.74;36466.54
1725353541.232;500;20.63;35502.00
1725353541.283;500;24.23;38637.07
1725353541.333;500;22.35;36998.27
1725353541.384;500;22.35;36998.27
1725353541.433;500;22.35;36998.27
1725353541.483;500;22.35;36998.27
1725353541.535;500;24.84;39167.33
1725353541.585;500;23.60;38088.54
1725353541.635;500;20.97;35795.87
1725353541.685;500;20.97;35795.87
1725353541.736;500;20.97;35795.87
1725353541.786;500;20.97;35795.87
1725353541.836;500;24.09;38521.07
1725353541.886;500;20.07;35008.40
1725353541.936;500;23.74;38212.54
1725353541.987;500;23.74;38212.54
1725353542.037;500;23.74;38212.54
1725353542.097;500;21.39;36162.93
1725353542.141;500;23.87;38322.80
1725353542.192;500;19.93;34888.13
1725353542.241;500;19.93;34888.13
1725353542.291;500;19.93;34888.13
1725353542.341;500;19.31;34349.13
1725353542.392;500;23.93;38379.33
1725353542.442;500;23.14;37686.93
1725353542.492;500;23.14;37686.93
1725353542.542;500;23.14;37686.93
1725353542.592;500;23.43;37943.46
1725353542.642;500;24.29;38687.60
1725353542.692;500;24.29;38687.60
1725353542.741;500;24.29;38687.60
1725353542.792;500;24.29;38687.60
1725353542.842;500;20.12;35054.00
1725353542.892;500;21.47;36235.27
1725353542.942;500;23.99;38428.40
1725353542.992;500;23.88;38330.00
1725353543.043;500;23.88;38330.00
1725353543.092;500;23.88;38330.00
1725353543.143;500;23.29;37819.60
1725353543.193;500;20.09;35026.93
1725353543.244;500;24.36;38751.73
1725353543.293;500;23.59;38081.87
1725353543.344;500;22.58;37203.87
1725353543.394;500;22.58;37203.87
1725353543.444;500;22.58;37203.87
1725353543.494;500;18.84;33939.33
1725353543.543;500;24.23;38639.46
1725353543.595;500;19.17;34223.20
1725353543.644;500;22.00;36692.80
1725353543.695;500;22.00;36692.80
1725353543.745;500;22.00;36692.80
1725353543.796;500;24.16;38574.93
1725353543.846;500;20.88;35716.67
1725353543.895;500;22.55;37177.46
1725353543.946;500;22.55;37177.46
1725353543.995;500;22.55;37177.46
1725353544.046;500;22.55;37177.46
1725353544.096;500;22.80;37387.20
1725353544.146;500;21.66;36400.27
1725353544.197;500;22.45;37083.40
1725353544.247;500;22.45;37083.40
1725353544.297;500;22.45;37083.40
1725353544.346;500;23.40;37913.00
1725353544.397;500;19.18;34234.13
1725353544.448;500;23.05;37609.73
1725353544.498;500;24.41;38796.93
1725353559.413;500;19.00;34078.87
1725353559.467;500;20.95;35775.60
1725353559.515;500;20.95;35775.60
1725353559.565;500;20.95;35775.60
1725353559.615;500;20.95;35775.60
1725353559.665;500;19.05;34122.46
1725353559.715;500;19.63;34623.73
1725353559.765;500;23.80;38266.67
1725353559.815;500;23.80;38266.67
1725353559.866;500;23.80;38266.67
1725353559.916;500;23.85;38308.93
1725353559.966;500;21.98;36679.60
1725353560.016;500;21.26;36051.60
1725353560.066;500;21.26;36051.60
1725353560.116;500;21.26;36051.60
1725353560.167;500;23.76;38229.46
1725353560.217;500;23.37;37887.80
1725353560.268;500;23.47;37976.27
1725353560.317;500;23.47;37976.27
1725353560.368;500;23.47;37976.27
1725353560.417;500;23.47;37976.27
1725353560.467;500;23.91;38355.87
1725353560.517;500;22.66;37267.20
1725353560.567;500;18.97;34047.46
1725353560.618;500;18.97;34047.46
1725353560.668;500;18.97;34047.46
1725353560.719;500;18.97;34047.46
1725353560.770;500;22.67;37277.87
1725353560.819;500;24.49;38868.00
1725353560.870;500;23.28;37805.87
1725353560.920;500;23.28;37805.87
1725353560.971;500;23.28;37805.87
1725353561.020;500;23.76;38233.07
1725353561.071;500;19.41;34432.20
1725353561.121;500;19.41;34432.20
1725353561.172;500;19.41;34432.20
1725353561.221;500;22.82;37408.54
1725353561.272;500;23.86;38320.40
1725353561.322;500;23.86;38317.73
1725353561.371;500;23.86;38317.73
1725353561.422;500;23.86;38317.73
1725353561.473;500;23.98;38420.93
1725353561.522;500;24.70;39050.67
1725353561.573;500;22.84;37429.60
1725353561.622;500;22.84;37429.60
1725353561.673;500;22.84;37429.60
1725353561.723;500;22.84;37429.60
1725353561.773;500;23.05;37605.20
1725353561.823;500;19.86;34826.40
1725353561.873;500;18.72;33829.46
1725353561.923;500;18.72;33829.46
1725353561.974;500;18.72;33829.46
1725353562.023;500;22.76;37358.13
1725353562.073;500;23.73;38201.07
1725353562.124;500;20.22;35143.80
1725353562.174;500;23.97;38414.00
1725353562.223;500;23.97;38414.00
1725353562.274;500;23.97;38414.00
1725353562.324;500;23.79;38253.87
1725353562.375;500;19.19;34246.40
1725353562.425;500;23.82;38280.93
1725353562.477;500;23.82;38280.93
1725353562.527;500;23.82;38280.93
1725353562.577;500;24.12;38545.60
1725353562.627;500;20.03;34976.93
1725353562.677;500;23.68;38155.73
1725353562.727;500;23.68;38155.73
1725353562.776;500;23.68;38155.73
1725353562.826;500;23.68;38155.73
1725353562.877;500;24.21;38625.07
1725353562.926;500;23.71;38186.67
1725353562.977;500;23.83;38288.80
1725353563.027;500;23.83;38288.80
1725353563.077;500;23.83;38288.80
1725353563.126;500;23.83;38288.80
1725353563.177;500;21.23;36018.00
1725353563.227;500;24.66;39016.00
1725353563.277;500;23.94;38388.00
1725353563.327;500;23.94;38388.00
1725353563.378;500;23.94;38388.00
1725353563.428;500;24.25;38656.27
1725353563.478;500;19.05;34118.54
1725353563.528;500;23.69;38168.54
1725353563.579;500;23.69;38168.54
1725353563.628;500;23.69;38168.54
1725353563.678;500;23.69;38168.54
1725353563.728;500;20.65;35519.20
1725353563.778;500;24.52;38895.33
1725353563.829;500;18.70;33817.46
1725353563.879;500;18.70;33817.46
1725353563.929;500;18.70;33817.46
1725353563.979;500;18.70;33817.46
1725353564.029;500;23.43;37945.20
1725353564.080;500;24.01;38450.27
1725353564.129;500;24.01;38450.27
1725353564.180;500;24.01;38450.27
1725353564.229;500;24.01;38450.27
1725353564.279;500;21.29;36069.87
1725353564.329;500;21.80;36515.46
1725353564.380;500;23.76;38231.46
1725353564.429;500;23.76;38231.46
1725353564.480;500;23.76;38231.46
1725353564.530;500;24.69;39037.60
1725353564.579;500;23.54;38038.93
1725353564.630;500;23.65;38128.67
1725353564.680;500;23.65;38128.67
1725353564.730;500;23.65;38128.67
1725353564.780;500;23.65;38128.67
1725353564.830;500;24.01;38444.40
1725353564.881;500;22.41;37049.07
1725353564.930;500;18.71;33821.27
1725353564.981;500;18.71;33821.27
1725353565.031;500;18.71;33821.27
1725353565.081;500;18.67;33791.73
1725353565.130;500;19.30;34340.00
1725353565.180;500;24.46;38836.00
1725353565.231;500;24.46;38836.00
1725353565.280;500;24.46;38836.00
1725353565.332;500;24.46;38836.00
1725353565.382;500;23.41;37920.27
1725353565.436;500;24.01;38448.00
1725353565.482;500;24.43;38809.20
1725353565.532;500;18.83;33926.07
1725353565.583;500;18.83;33926.07
1725353565.633;500;18.83;33926.07
1725353565.684;500;18.83;33926.07
1725353565.733;500;22.18;36851.40
1725353565.783;500;24.00;38441.46
1725353565.833;500;24.00;38441.46
1725353565.884;500;24.00;38441.46
1725353565.933;500;24.00;38441.46
1725353565.983;500;21.84;36549.87
1725353566.033;500;22.18;36849.33
1725353566.083;500;24.16;38580.93
1725353566.133;500;24.16;38580.93
1725353566.183;500;24.16;38580.93
1725353566.233;500;19.93;34887.54
1725353580.438;500;18.77;33872.93
1725353580.488;500;19.89;34853.33
1725353580.538;500;19.89;34853.33
1725353580.588;500;19.89;34853.33
1725353580.638;500;24.23;38642.40
1725353580.688;500;24.23;38642.40
1725353580.738;500;24.23;38642.40
1725353580.789;500;24.08;38510.27
1725353580.839;500;20.25;35170.27
1725353580.889;500;20.25;35170.27
1725353580.940;500;20.25;35170.27
1725353580.990;500;23.64;38121.87
1725353581.039;500;19.44;34461.27
1725353581.090;500;23.92;38369.46
1725353581.139;500;23.92;38369.46
1725353581.190;500;23.92;38369.46
1725353581.240;500;19.87;34837.87
1725353581.290;500;20.86;35700.13
1725353581.340;500;20.86;35700.13
1725353581.390;500;20.86;35700.13
1725353581.441;500;23.63;38114.27
1725353581.491;500;23.65;38135.60
1725353581.541;500;23.65;38135.60
1725353581.591;500;23.65;38135.60
1725353581.640;500;23.65;38135.60
1725353581.692;500;20.30;35208.27
1725353581.742;500;24.18;38594.00
1725353581.792;500;21.49;36246.73
1725353581.841;500;21.49;36246.73
1725353581.891;500;21.49;36246.73
1725353581.942;500;19.73;34714.00
1725353581.992;500;23.88;38336.54
1725353582.042;500;23.88;38336.54
1725353582.093;500;23.88;38336.54
1725353582.142;500;24.04;38473.33
1725353582.192;500;23.59;38084.00
1725353582.242;500;23.59;38078.67
1725353582.292;500;23.59;38078.67
1725353582.342;500;23.59;38078.67
1725353582.392;500;23.50;38000.00
1725353582.442;500;24.03;38466.80
1725353582.492;500;24.03;38466.80
1725353582.542;500;24.03;38466.80
1725353582.593;500;23.60;38089.33
1725353582.643;500;24.68;39029.60
1725353582.692;500;24.68;39029.60
1725353582.742;500;24.68;39029.60
1725353582.792;500;19.46;34479.20
1725353582.843;500;24.52;38888.67
1725353582.893;500;23.78;38245.20
1725353582.943;500;23.78;38245.20
1725353582.993;500;23.78;38245.20
1725353583.043;500;24.68;39029.87
1725353583.093;500;23.47;37976.54
1725353583.143;500;23.47;37976.54
1725353583.193;500;23.47;37976.54
1725353583.244;500;23.47;37976.54
1725353583.294;500;23.86;38316.54
1725353583.343;500;24.41;38798.00
1725353583.395;500;24.41;38798.00
1725353583.444;500;24.41;38798.00
1725353583.496;500;20.59;35464.00
1725353583.545;500;23.99;38433.73
1725353583.595;500;23.67;38147.46
1725353583.645;500;23.67;38147.46
1725353583.695;500;23.67;38147.46
1725353583.745;500;24.48;38860.13
1725353583.796;500;19.16;34220.00
1725353583.846;500;19.16;34220.00
1725353583.895;500;19.16;34220.00
1725353583.945;500;24.09;38520.27
1725353583.995;500;23.54;38038.67
1725353584.046;500;23.54;38038.67
1725353584.095;500;23.54;38038.67
1725353584.147;500;19.29;34330.00
1725353584.197;500;23.72;38197.87
1725353584.246;500;23.72;38197.87
1725353584.296;500;23.72;38197.87
1725353584.346;500;23.72;38197.87
1725353584.396;500;23.63;38119.46
1725353584.446;500;23.59;38080.00
1725353584.496;500;23.59;38080.00
1725353584.546;500;23.59;38080.00
1725353584.596;500;19.43;34454.54
1725353584.646;500;24.15;38566.07
1725353584.696;500;24.15;38566.07
1725353584.746;500;24.15;38566.07
1725353584.796;500;23.33;37850.54
1725353584.846;500;21.60;36342.13
1725353584.896;500;20.55;35424.93
1725353584.946;500;20.55;35424.93
1725353584.996;500;21.10;35905.07
1725353585.046;500;20.17;35098.13
1725353585.096;500;19.23;34279.46
1725353585.148;500;19.23;34279.46
1725353585.197;500;19.23;34279.46
1725353585.247;500;21.58;36325.73
1725353585.297;500;24.14;38562.00
1725353585.347;500;23.53;38031.33
1725353585.397;500;23.53;38031.33
1725353585.447;500;23.53;38031.33
1725353585.497;500;23.27;37804.93
1725353585.547;500;21.68;36417.46
1725353585.598;500;23.38;37895.60
1725353585.647;500;23.38;37895.60
1725353585.697;500;23.38;37895.60
1725353585.748;500;23.38;37900.27
1725353585.798;500;22.89;37471.46
1725353585.848;500;22.89;37471.46
1725353585.897;500;22.89;37471.46
1725353585.948;500;22.42;37064.00
1725353737.157;102;30.00;34262.93
1725353737.208;104;30.00;34109.07
1725353737.457;101;30.00;34327.73
1725353737.507;101;30.00;34327.73
1725353737.557;101;30.00;34327.73
1725353737.661;39;30.00;38338.46
1725353737.707;39;30.00;38338.46
1725353737.759;39;30.00;38338.46
1725353737.809;39;30.00;38338.46
1725353737.859;77;30.00;35894.80
1725353737.908;77;30.00;35894.80
1725353737.958;77;30.00;35894.80
1725353738.008;77;30.00;35894.80
1725353738.060;44;30.00;38041.67
1725353738.110;96;30.00;34648.27
1725353738.160;96;30.00;34648.27
1725353738.209;96;30.00;34648.27
1725353738.259;96;30.00;34648.27
1725353738.310;42;30.00;38144.40
1725353738.360;86;30.00;35265.87
1725353738.410;106;30.00;34009.33
1725353738.460;106;30.00;34009.33
1725353738.510;106;30.00;34009.33
1725353738.560;104;30.00;34096.00
1725353738.610;68;30.00;36455.07
1725353738.659;66;30.00;36567.87
1725353738.709;72;30.00;36194.40
1725353738.760;72;30.00;36194.40
1725353738.811;72;30.00;36194.40
1725353738.861;71;30.00;36257.46
1725353738.911;108;30.00;33854.27
1725353738.960;74;30.00;36060.13
1725353739.010;74;30.00;36060.13
1725353739.062;74;30.00;36060.13
1725353739.112;67;30.00;36546.54
1725353739.162;54;30.00;37386.54
1725353739.212;96;30.00;34664.40
1725353739.261;98;30.00;34513.60
1725353739.311;98;30.00;34513.60
1725353739.362;98;30.00;34513.60
1725353739.411;37;30.00;38507.73
1725353739.463;42;30.00;38172.54
1725353739.513;42;30.00;38172.54
1725353739.563;42;30.00;38172.54
1725353739.613;42;30.00;38172.54
1725353739.662;42;30.00;38189.73
1725353739.712;56;30.00;37234.54
1725353739.762;56;30.00;37234.54
1725353739.813;56;30.00;37234.54
1725353739.862;61;30.00;36941.33
1725353739.913;100;30.00;34339.33
1725353739.963;66;30.00;36601.07
1725353740.014;66;30.00;36601.07
1725353740.064;66;30.00;36601.07
1725353740.113;74;30.00;36095.87
1725353740.222;100;30.00;34340.54
1725353740.269;98;30.00;34533.73
1725353740.319;98;30.00;34533.73
1725353740.368;98;30.00;34533.73
1725353740.419;86;30.00;35310.13
1725353740.469;66;30.00;36616.27
1725353740.518;106;30.00;33963.73
1725353740.569;106;30.00;33963.73
1725353740.620;106;30.00;33963.73
1725353740.670;106;30.00;33963.73
1725353740.720;60;30.00;37007.20
1725353740.770;52;30.00;37510.27
1725353740.820;46;30.00;37925.54
1725353740.870;46;30.00;37925.54
1725353740.920;46;30.00;37925.54
1725353740.971;103;30.00;34184.13
1725353741.021;34;30.00;38714.54
1725353741.071;48;30.00;37742.20
1725353741.121;48;30.00;37742.20
1725353741.172;48;30.00;37742.20
1725353741.221;48;30.00;37742.20
1725353741.272;52;30.00;37482.67
1725353741.322;93;30.00;34801.60
1725353741.372;45;30.00;37963.87
1725353741.422;45;30.00;37963.87
1725353741.471;45;30.00;37963.87
1725353741.521;38;30.00;38430.40
1725353741.572;98;30.00;34496.54
1725353741.622;68;30.00;36435.60
1725353741.671;96;30.00;34658.20
1725353741.722;96;30.00;34658.20
1725353741.772;96;30.00;34658.20
1725353741.822;50;30.00;37617.87
1725353741.872;88;30.00;35130.73
1725353741.922;82;30.00;35549.73
1725353741.971;82;30.00;35549.73
1725353742.022;82;30.00;35549.73
1725353742.073;82;30.00;35524.93
1725353742.122;48;30.00;37799.73
1725353742.172;34;30.00;38692.40
1725353742.222;34;30.00;38692.40
1725353742.272;34;30.00;38692.40
1725353742.322;76;30.00;35920.93
1725353742.374;97;30.00;34546.54
1725353742.423;50;30.00;37650.40
1725353742.473;50;30.00;37650.40
1725353742.524;50;30.00;37650.40
1725353742.574;50;30.00;37650.40
1725353742.624;46;30.00;37927.07
1725353742.674;55;30.00;37297.46
1725353742.724;74;30.00;36086.13
1725353742.774;74;30.00;36086.13
1725353742.824;74;30.00;36086.13
1725353742.875;91;30.00;34957.07
1725353742.925;42;30.00;38143.87
1725353742.975;32;30.00;38789.46
1725353743.025;32;30.00;38789.46
1725353743.076;32;30.00;38789.46
1725353743.125;71;30.00;36286.67
1725353743.175;90;30.00;34999.73
1725353743.225;58;30.00;37088.54
1725353743.275;58;30.00;37088.54
1725353743.326;58;30.00;37088.54
1725353743.376;51;30.00;37573.73
1725353743.427;34;30.00;38701.73
1725353743.477;107;30.00;33925.87
1725353743.677;35;30.00;38624.40
1725353758.479;109;30.00;33812.27
1725353758.529;109;30.00;33812.27
1725353758.580;109;30.00;33812.27
1725353758.630;109;30.00;33812.27
1725353758.680;42;30.00;38161.73
1725353758.730;42;30.00;38161.73
1725353758.780;42;30.00;38161.73
1725353758.830;42;30.00;38161.73
1725353758.881;50;30.00;37641.73
1725353758.931;105;30.00;34021.33
1725353758.980;105;30.00;34021.33
1725353759.032;105;30.00;34021.33
1725353759.082;99;30.00;34419.46
1725353759.132;64;30.00;36745.54
1725353759.182;102;30.00;34260.27
1725353759.232;102;30.00;34260.27
1725353759.281;102;30.00;34260.27
1725353759.332;55;30.00;37292.87
1725353759.383;47;30.00;37820.13
1725353759.433;41;30.00;38199.60
1725353759.483;41;30.00;38199.60
1725353759.533;41;30.00;38199.60
1725353759.582;41;30.00;38199.60
1725353759.632;42;30.00;38165.60
1725353759.683;88;30.00;35177.60
1725353759.733;94;30.00;34769.87
1725353759.783;94;30.00;34769.87
1725353759.833;94;30.00;34769.87
1725353759.883;101;30.00;34322.00
1725353759.933;75;30.00;36002.67
1725353759.989;34;30.00;38701.20
1725353760.036;39;30.00;38385.73
1725353760.086;39;30.00;38385.73
1725353760.136;39;30.00;38385.73
1725353760.185;39;30.00;38385.73
1725353760.237;73;30.00;36114.00
1725353760.286;48;30.00;37795.07
1725353760.337;48;30.00;37795.07
1725353760.387;48;30.00;37795.07
1725353760.437;48;30.00;37795.07
1725353760.487;55;30.00;37289.07
1725353760.538;51;30.00;37551.54
1725353760.588;98;30.00;34491.73
1725353760.637;98;30.00;34491.73
1725353760.688;98;30.00;34491.73
1725353760.737;105;30.00;34039.20
1725353760.788;62;30.00;36840.00
1725353760.838;60;30.00;37010.40
1725353760.887;60;30.00;37010.40
1725353760.938;60;30.00;37010.40
1725353760.989;40;30.00;38320.40
1725353761.039;80;30.00;35652.93
1725353761.089;48;30.00;37772.93
1725353761.139;48;30.00;37772.93
1725353761.188;48;30.00;37772.93
1725353761.240;48;30.00;37772.93
1725353761.289;66;30.00;36576.40
1725353761.341;70;30.00;36319.73
1725353761.391;78;30.00;35825.60
1725353761.441;78;30.00;35825.60
1725353761.491;78;30.00;35825.60
1725353761.542;104;30.00;34079.33
1725353761.591;83;30.00;35505.73
1725353761.642;95;30.00;34680.54
1725353761.692;100;30.00;34360.00
1725353761.742;100;30.00;34360.00
1725353761.792;100;30.00;34360.00
1725353761.842;49;30.00;37715.73
1725353761.892;55;30.00;37300.67
1725353761.943;76;30.00;35943.46
1725353761.993;76;30.00;35943.46
1725353762.043;76;30.00;35943.46
1725353762.093;38;30.00;38417.46
1725353762.143;42;30.00;38169.40
1725353762.194;108;30.00;33857.07
1725353762.244;108;30.00;33857.07
1725353762.295;108;30.00;33857.07
1725353762.345;102;30.00;34222.40
1725353762.395;51;30.00;37556.40
1725353762.445;101;30.00;34315.60
1725353762.495;39;30.00;38333.07
1725353762.546;39;30.00;38333.07
1725353762.596;39;30.00;38333.07
1725353762.646;30;30.00;38962.13
1725353762.696;65;30.00;36640.40
1725353762.746;35;30.00;38641.46
1725353762.795;35;30.00;38641.46
1725353762.846;35;30.00;38641.46
1725353762.895;49;30.00;37692.13
1725353762.946;104;30.00;34141.20
1725353762.995;75;30.00;35993.73
1725353763.045;75;30.00;35993.73
1725353763.095;75;30.00;35993.73
1725353763.145;75;30.00;35993.73
1725353763.196;48;30.00;37799.27
1725353763.246;69;30.00;36379.60
1725353763.296;39;30.00;38366.13
1725353763.346;39;30.00;38366.13
1725353763.396;39;30.00;38366.13
1725353763.447;89;30.00;35061.54
1725353763.696;96;30.00;34646.13
1725353763.797;107;30.00;33924.67
1725353763.847;107;30.00;33924.67
1725353763.897;107;30.00;33924.67
1725353763.948;94;30.00;34735.67
1725353763.997;106;30.00;33946.27
1725353764.047;101;30.00;34336.40
1725353764.098;101;30.00;34336.40
1725353764.148;101;30.00;34336.40
1725353764.198;58;30.00;37120.13
1725353764.247;50;30.00;37627.46
1725353764.299;39;30.00;38386.13
1725353764.349;39;30.00;38386.13
1725353764.399;39;30.00;38386.13
1725353764.449;48;30.00;37801.33
1725353764.499;41;30.00;38228.27
1725353764.549;41;30.00;38228.27
1725353764.600;41;30.00;38228.27
1725353764.650;66;30.00;36564.80
1725353764.699;100;30.00;34384.67
1725353764.750;100;30.00;34384.67
1725353764.799;100;30.00;34384.67
1725353764.851;100;30.00;34384.67
1725353764.901;93;30.00;34839.60
1725353764.950;44;30.00;38004.20
1725353765.001;62;30.00;36860.00
1725353765.050;62;30.00;36860.00
1725353765.102;62;30.00;36860.00
1725353765.152;62;30.00;36860.00
1725353765.202;56;30.00;37226.13
1725353765.253;44;30.00;38010.67
1725353779.516;104;30.00;34138.67
1725353779.566;104;30.00;34138.67
1725353779.616;104;30.00;34138.67
1725353779.716;51;30.00;37608.00
1725353779.766;51;30.00;37608.00
1725353779.817;51;30.00;37608.00
1725353779.867;85;30.00;35377.87
1725353779.916;69;30.00;36429.60
1725353779.967;100;30.00;34349.27
1725353780.016;100;30.00;34349.27
1725353780.067;100;30.00;34349.27
1725353780.119;100;30.00;34349.27
1725353780.167;40;30.00;38307.33
1725353780.217;29;30.00;38991.33
1725353780.268;29;30.00;38991.33
1725353780.317;29;30.00;38991.33
1725353780.368;29;30.00;38991.33
1725353780.417;41;30.00;38258.27
1725353780.467;97;30.00;34590.67
1725353780.517;91;30.00;34937.87
1725353780.569;91;30.00;34937.87
1725353780.618;91;30.00;34937.87
1725353780.720;41;30.00;38232.33
1725353780.770;33;30.00;38754.13
1725353780.819;61;30.00;36945.67
1725353780.869;61;30.00;36945.67
1725353780.920;61;30.00;36945.67
1725353780.971;96;30.00;34662.00
1725353781.021;94;30.00;34761.54
1725353781.071;58;30.00;37126.13
1725353781.122;58;30.00;37126.13
1725353781.172;58;30.00;37126.13
1725353781.222;58;30.00;37126.13
1725353781.273;70;30.00;36365.87
1725353781.322;104;30.00;34082.54
1725353781.372;109;30.00;33785.33
1725353781.422;109;30.00;33785.33
1725353781.473;109;30.00;33785.33
1725353781.522;55;30.00;37286.13
1725353781.573;73;30.00;36125.20
1725353781.622;46;30.00;37914.80
1725353781.672;46;30.00;37914.80
1725353781.723;46;30.00;37914.80
1725353781.773;52;30.00;37541.60
1725353781.822;101;30.00;34316.80
1725353781.872;94;30.00;34749.33
1725353781.923;94;30.00;34749.33
1725353781.972;94;30.00;34749.33
1725353782.024;45;30.00;37948.80
1725353782.074;107;30.00;33905.87
1725353782.124;43;30.00;38080.80
1725353782.173;43;30.00;38080.80
1725353782.224;43;30.00;38080.80
1725353782.274;101;30.00;34306.13
1725353782.324;73;30.00;36167.60
1725353782.374;67;30.00;36501.87
1725353782.424;67;30.00;36501.87
1725353782.474;67;30.00;36501.87
1725353782.523;109;30.00;33788.27
1725353782.574;36;30.00;38558.73
1725353782.625;61;30.00;36894.67
1725353782.675;61;30.00;36894.67
1725353782.725;61;30.00;36894.67
1725353782.776;61;30.00;36894.67
1725353782.825;47;30.00;37834.27
1725353782.876;97;30.00;34576.00
1725353782.926;40;30.00;38306.93
1725353782.976;40;30.00;38306.93
1725353783.025;40;30.00;38306.93
1725353783.076;40;30.00;38306.93
1725353783.125;64;30.00;36734.54
1725353783.175;96;30.00;34620.54
1725353783.225;47;30.00;37857.20
1725353783.275;47;30.00;37857.20
1725353783.325;47;30.00;37857.20
1725353783.377;50;30.00;37644.00
1725353783.427;33;30.00;38784.13
1725353783.476;36;30.00;38566.00
1725353783.527;37;30.00;38477.07
1725353783.577;37;30.00;38477.07
1725353783.627;37;30.00;38477.07
1725353783.677;100;30.00;34350.93
1725353783.727;41;30.00;38244.80
1725353783.777;63;30.00;36813.46
1725353783.828;52;30.00;37541.80
1725353783.877;52;30.00;37541.80
1725353783.927;52;30.00;37541.80
1725353784.027;109;30.00;33756.93
1725353784.077;61;30.00;36890.93
1725353784.129;61;30.00;36890.93
1725353784.178;61;30.00;36890.93
1725353784.279;50;30.00;37626.33
1725353784.329;35;30.00;38652.54
1725353784.378;35;30.00;38652.54
1725353784.429;35;30.00;38652.54
1725353784.529;41;30.00;38231.33
1725353784.580;41;30.00;38231.33
1725353784.630;41;30.00;38231.33
1725353784.680;48;30.00;37756.46
1725353784.780;78;30.00;35810.27
1725353784.829;78;30.00;35810.27
1725353784.879;78;30.00;35810.27
1725353784.930;78;30.00;35810.27
1725353785.031;68;30.00;36485.33
1725353785.081;68;30.00;36485.33
1725353785.130;68;30.00;36485.33
1725353785.181;90;30.00;35036.27
1725353785.230;75;30.00;36031.60
1725353785.281;75;30.00;36031.60
1725353785.330;75;30.00;36031.60
1725353785.381;49;30.00;37712.40
1725353785.431;35;30.00;38636.27
1725353785.480;35;30.00;38636.27
1725353785.531;35;30.00;38636.27
1725353785.580;35;30.00;38636.27
1725353785.630;40;30.00;38277.87
1725353785.681;90;30.00;35024.80
1725353785.731;60;30.00;36967.67
1725353785.780;60;30.00;36967.67
1725353785.830;60;30.00;36967.67
1725353785.880;60;30.00;36967.67
1725353785.931;65;30.00;36674.27
1725353785.980;105;30.00;34071.60
1725353786.030;80;30.00;35710.67
1725353786.081;80;30.00;35710.67
1725353786.131;80;30.00;35710.67
1725353786.181;95;30.00;34724.00
1725353786.231;65;30.00;36655.46
1725354068.981;107;20.00;33934.54
1725354069.182;101;20.00;34333.33
1725354069.282;103;20.00;34200.80
1725354069.333;103;20.00;34200.80
1725354069.382;103;20.00;34200.80
1725354069.433;83;20.00;35495.73
1725354069.482;72;20.00;36193.60
1725354069.532;72;20.00;36193.60
1725354069.582;72;20.00;36193.60
1725354069.632;72;20.00;36193.60
1725354069.682;64;20.00;36693.87
1725354069.733;36;20.00;38532.54
1725354069.783;69;20.00;36431.60
1725354069.833;77;20.00;35903.20
1725354069.883;77;20.00;35903.20
1725354069.932;77;20.00;35903.20
1725354069.984;77;20.00;35903.20
1725354070.033;31;20.00;38894.80
1725354070.083;47;20.00;37842.54
1725354070.133;54;20.00;37368.27
1725354070.184;54;20.00;37368.27
1725354070.234;54;20.00;37368.27
1725354070.283;54;20.00;37368.27
1725354070.334;64;20.00;36747.33
1725354070.384;50;20.00;37637.87
1725354070.435;39;20.00;38335.40
1725354070.486;93;20.00;34807.46
1725354070.536;93;20.00;34807.46
1725354070.585;93;20.00;34807.46
1725354070.636;93;20.00;34807.46
1725354070.686;44;20.00;38023.73
1725354070.736;99;20.00;34438.40
1725354070.786;46;20.00;37910.93
1725354070.836;78;20.00;35814.27
1725354070.886;80;20.00;35710.13
1725354070.936;80;20.00;35710.13
1725354070.985;80;20.00;35710.13
1725354071.036;85;20.00;35381.33
1725354071.087;27;20.00;39114.54
1725354071.136;99;20.00;34422.00
1725354071.186;99;20.00;34422.00
1725354071.237;99;20.00;34422.00
1725354071.288;99;20.00;34422.00
1725354071.337;77;20.00;35895.46
1725354071.387;86;20.00;35271.20
1725354071.438;56;20.00;37267.60
1725354071.487;52;20.00;37527.60
1725354071.538;52;20.00;37527.60
1725354071.588;52;20.00;37527.60
1725354071.637;44;20.00;38038.40
1725354071.688;65;20.00;36663.87
1725354071.738;62;20.00;36839.07
1725354071.787;79;20.00;35714.54
1725354071.837;79;20.00;35714.54
1725354071.888;79;20.00;35714.54
1725354071.937;79;20.00;35714.54
1725354071.988;79;20.00;35714.54
1725354072.053;64;20.00;36724.67
1725354072.088;97;20.00;34587.87
1725354072.138;72;20.00;36206.13
1725354072.188;32;20.00;38835.73
1725354072.238;44;20.00;38030.93
1725354072.288;44;20.00;38030.93
1725354072.338;44;20.00;38030.93
1725354072.388;44;20.00;38030.93
1725354072.438;83;20.00;35485.07
1725354072.487;83;20.00;35462.40
1725354072.538;109;20.00;33769.87
1725354072.589;57;20.00;37177.46
1725354072.639;57;20.00;37177.46
1725354072.689;57;20.00;37177.46
1725354072.739;83;20.00;35469.46
1725354072.789;105;20.00;34048.13
1725354072.840;102;20.00;34228.40
1725354072.889;93;20.00;34834.46
1725354072.939;85;20.00;35356.80
1725354072.989;85;20.00;35356.80
1725354073.039;85;20.00;35356.80
1725354073.089;85;20.00;35356.80
1725354073.139;35;20.00;38649.33
1725354073.189;34;20.00;38710.67
1725354073.239;34;20.00;38710.67
1725354073.290;82;20.00;35573.27
1725354073.339;82;20.00;35573.27
1725354073.389;82;20.00;35573.27
1725354073.439;82;20.00;35573.27
1725354073.489;50;20.00;37628.27
1725354073.540;55;20.00;37333.46
1725354073.591;91;20.00;34974.00
1725354073.640;33;20.00;38730.93
1725354073.691;38;20.00;38453.33
1725354073.741;38;20.00;38453.33
1725354073.791;38;20.00;38453.33
1725354073.842;49;20.00;37730.13
1725354073.892;46;20.00;37876.40
1725354073.942;83;20.00;35499.07
1725354073.992;104;20.00;34139.73
1725354074.042;104;20.00;34139.73
1725354074.092;104;20.00;34139.73
1725354074.142;104;20.00;34139.73
1725354074.192;104;20.00;34139.73
1725354074.242;86;20.00;35286.67
1725354074.292;83;20.00;35490.13
1725354074.341;36;20.00;38543.46
1725354074.392;64;20.00;36728.93
1725354074.442;64;20.00;36728.93
1725354074.492;64;20.00;36728.93
1725354074.542;64;20.00;36728.93
1725354074.592;78;20.00;35801.46
1725354074.644;42;20.00;38178.73
1725354074.693;78;20.00;35783.46
1725354074.744;33;20.00;38767.60
1725354074.793;33;20.00;38741.60
1725354074.843;33;20.00;38741.60
1725354074.893;33;20.00;38741.60
1725354074.943;87;20.00;35245.67
1725354074.994;67;20.00;36539.33
1725354075.044;66;20.00;36578.00
1725354075.093;76;20.00;35956.13
1725354075.145;86;20.00;35277.27
1725354075.195;86;20.00;35277.27
1725354075.244;86;20.00;35277.27
1725354075.296;86;20.00;35277.27
1725354075.346;60;20.00;36986.27
1725354075.396;73;20.00;36157.07
1725354075.446;81;20.00;35585.46
1725354075.496;89;20.00;35107.60
1725354075.546;89;20.00;35107.60
1725354075.596;89;20.00;35107.60
1725354075.647;48;20.00;37765.60
1725354075.697;48;20.00;37781.46
1725354075.747;33;20.00;38740.93
1725354075.797;33;20.00;38740.93
1725354075.848;33;20.00;38740.93
1725354075.897;33;20.00;38740.93
1725354075.947;82;20.00;35568.54
1725354075.998;60;20.00;36997.73
1725354076.048;60;20.00;36997.73
1725354076.097;60;20.00;36997.73
1725354076.148;60;20.00;36997.73
1725354076.198;76;20.00;35937.60
1725354076.248;41;20.00;38233.07
1725354076.299;38;20.00;38445.67
1725354076.348;60;20.00;36977.20
1725354076.398;60;20.00;36977.20
1725354076.450;60;20.00;36977.20
1725354076.500;60;20.00;36977.20
1725354076.550;68;20.00;36435.87
1725354076.599;58;20.00;37150.54
1725354076.649;97;20.00;34569.60
1725354076.700;65;20.00;36660.54
1725354076.750;65;20.00;36660.54
1725354076.800;65;20.00;36660.54
1725354076.850;102;20.00;34207.73
1725354076.901;98;20.00;34495.87
1725354076.951;81;20.00;35645.13
1725354077.001;55;20.00;37292.80
1725354077.051;55;20.00;37292.80
1725354077.101;55;20.00;37292.80
1725354077.151;55;20.00;37292.80
1725354077.201;55;20.00;37292.80
1725354077.251;88;20.00;35187.20
1725354077.302;75;20.00;35988.00
1725354091.535;104;20.00;34135.40
1725354091.584;97;20.00;34560.13
1725354091.635;99;20.00;34429.00
1725354091.685;99;20.00;34429.00
1725354091.735;99;20.00;34429.00
1725354091.785;99;20.00;34429.00
1725354091.836;109;20.00;33792.13
1725354091.886;74;20.00;36075.33
1725354091.935;80;20.00;35678.54
1725354091.986;80;20.00;35678.54
1725354092.037;80;20.00;35678.54
1725354092.086;46;20.00;37902.33
1725354092.136;88;20.00;35183.60
1725354092.187;84;20.00;35408.40
1725354092.237;84;20.00;35408.40
1725354092.286;84;20.00;35408.40
1725354092.337;95;20.00;34720.80
1725354092.386;44;20.00;38061.07
1725354092.438;55;20.00;37300.27
1725354092.487;76;20.00;35940.27
1725354092.538;76;20.00;35940.27
1725354092.587;76;20.00;35940.27
1725354092.637;76;20.00;35940.27
1725354092.687;50;20.00;37635.20
1725354092.738;36;20.00;38544.67
1725354092.788;29;20.00;39047.60
1725354092.837;29;20.00;39047.60
1725354092.888;29;20.00;39047.60
1725354092.939;53;20.00;37425.73
1725354092.989;48;20.00;37775.33
1725354093.039;88;20.00;35140.07
1725354093.088;85;20.00;35377.54
1725354093.140;85;20.00;35377.54
1725354093.190;85;20.00;35377.54
1725354093.240;82;20.00;35526.93
1725354093.289;49;20.00;37736.27
1725354093.341;103;20.00;34151.46
1725354093.391;103;20.00;34151.46
1725354093.440;103;20.00;34151.46
1725354093.492;103;20.00;34151.46
1725354093.542;103;20.00;34151.46
1725354093.592;93;20.00;34845.33
1725354093.642;90;20.00;35008.80
1725354093.691;27;20.00;39135.73
1725354093.741;27;20.00;39135.73
1725354093.791;27;20.00;39135.73
1725354093.842;49;20.00;37691.60
1725354093.891;57;20.00;37189.80
1725354093.941;91;20.00;34977.73
1725354093.992;89;20.00;35084.13
1725354094.042;89;20.00;35084.13
1725354094.092;89;20.00;35084.13
1725354094.142;70;20.00;36323.87
1725354094.192;30;20.00;38979.60
1725354094.242;56;20.00;37263.20
1725354094.292;95;20.00;34712.93
1725354094.342;95;20.00;34712.93
1725354094.393;95;20.00;34712.93
1725354094.443;30;20.00;38938.54
1725354094.493;100;20.00;34383.07
1725354094.543;75;20.00;35994.67
1725354094.593;72;20.00;36227.73
1725354094.643;72;20.00;36227.73
1725354094.692;72;20.00;36227.73
1725354094.744;72;20.00;36227.73
1725354094.793;35;20.00;38633.20
1725354094.843;39;20.00;38388.67
1725354094.893;68;20.00;36434.46
1725354094.944;68;20.00;36434.46
1725354094.994;68;20.00;36434.46
1725354095.044;68;20.00;36434.46
1725354095.093;60;20.00;36978.67
1725354095.143;102;20.00;34225.93
1725354095.193;32;20.00;38840.27
1725354095.244;56;20.00;37246.00
1725354095.293;49;20.00;37721.67
1725354095.344;49;20.00;37721.67
1725354095.393;49;20.00;37721.67
1725354095.443;49;20.00;37721.67
1725354095.494;72;20.00;36230.67
1725354095.543;97;20.00;34559.46
1725354095.595;40;20.00;38307.46
1725354095.645;40;20.00;38307.46
1725354095.695;40;20.00;38307.46
1725354095.746;40;20.00;38307.46
1725354095.796;62;20.00;36838.93
1725354095.846;70;20.00;36339.40
1725354095.896;72;20.00;36218.40
1725354095.945;72;20.00;36218.40
1725354095.996;72;20.00;36218.40
1725354096.046;72;20.00;36218.40
1725354096.096;77;20.00;35905.80
1725354096.146;86;20.00;35289.07
1725354096.196;54;20.00;37385.73
1725354096.245;54;20.00;37385.73
1725354096.296;54;20.00;37385.73
1725354096.345;54;20.00;37385.73
1725354096.396;97;20.00;34539.73
1725354096.446;85;20.00;35330.13
1725354096.495;32;20.00;38843.87
1725354096.546;32;20.00;38843.87
1725354096.596;49;20.00;37700.67
1725354096.646;49;20.00;37700.67
1725354096.695;49;20.00;37700.67
1725354096.745;49;20.00;37700.67
1725354096.795;82;20.00;35556.67
1725354096.846;97;20.00;34589.20
1725354096.895;95;20.00;34730.07
1725354096.946;82;20.00;35552.67
1725354096.995;109;20.00;33755.73
1725354097.046;109;20.00;33755.73
1725354097.095;109;20.00;33755.73
1725354097.146;39;20.00;38329.73
1725354097.195;109;20.00;33814.13
1725354097.246;93;20.00;34859.87
1725354097.296;29;20.00;39003.07
1725354097.346;29;20.00;39003.07
1725354097.396;29;20.00;39003.07
1725354097.445;29;20.00;39003.07
1725354097.496;106;20.00;33972.54
1725354097.545;108;20.00;33829.07
1725354097.596;58;20.00;37110.54
1725354097.646;72;20.00;36204.67
1725354097.695;72;20.00;36204.67
1725354097.746;72;20.00;36204.67
1725354097.846;95;20.00;34728.07
1725354097.895;48;20.00;37747.73
1725354097.946;50;20.00;37666.80
1725354097.997;50;20.00;37666.80
1725354098.047;50;20.00;37666.80
1725354098.147;32;20.00;38845.20
1725354098.196;104;20.00;34096.67
1725354098.247;104;20.00;34096.67
1725354098.297;104;20.00;34096.67
1725354098.346;104;20.00;34096.67
1725354098.497;57;20.00;37159.87
1725354098.547;65;20.00;36693.20
1725354098.597;65;20.00;36693.20
1725354098.648;65;20.00;36693.20
1725354098.697;105;20.00;34060.93
1725354098.746;103;20.00;34149.07
1725354098.798;48;20.00;37784.80
1725354098.848;48;20.00;37784.80
1725354098.898;48;20.00;37784.80
1725354098.947;38;20.00;38446.93
1725354098.998;63;20.00;36793.60
1725354099.047;49;20.00;37683.33
1725354099.097;66;20.00;36610.54
1725354099.147;66;20.00;36610.54
1725354099.198;66;20.00;36610.54
1725354099.248;100;20.00;34401.87
1725354099.298;45;20.00;37978.67
1725354099.349;48;20.00;37800.93
1725354099.398;78;20.00;35841.00
1725354099.448;78;20.00;35841.00
1725354099.499;78;20.00;35841.00
1725354099.548;78;20.00;35841.00
1725354099.599;104;20.00;34115.33
1725354099.649;101;20.00;34293.73
1725354113.528;106;20.00;33980.80
1725354113.578;106;20.00;33980.80
1725354113.629;106;20.00;33980.80
1725354113.678;106;20.00;33980.80
1725354113.728;43;20.00;38101.07
1725354113.779;66;20.00;36620.93
1725354113.828;66;20.00;36620.93
1725354113.878;66;20.00;36620.93
1725354113.930;62;20.00;36868.27
1725354113.980;32;20.00;38818.00
1725354114.030;71;20.00;36281.20
1725354114.079;34;20.00;38699.20
1725354114.130;46;20.00;37876.40
1725354114.179;46;20.00;37876.40
1725354114.230;46;20.00;37876.40
1725354114.280;79;20.00;35719.20
1725354114.331;61;20.00;36931.33
1725354114.381;39;20.00;38371.73
1725354114.431;48;20.00;37763.20
1725354114.481;48;20.00;37763.20
1725354114.531;48;20.00;37763.20
1725354114.581;39;20.00;38379.60
1725354114.631;78;20.00;35809.20
1725354114.882;68;20.00;36484.13
1725354114.932;92;20.00;34912.40
1725354114.983;109;20.00;33765.87
1725354115.034;109;20.00;33765.87
1725354115.083;109;20.00;33765.87
1725354115.134;109;20.00;33765.87
1725354115.183;80;20.00;35690.27
1725354115.234;82;20.00;35519.00
1725354115.283;57;20.00;37215.20
1725354115.334;57;20.00;37215.20
1725354115.385;57;20.00;37215.20
1725354115.434;57;20.00;37215.20
1725354115.484;73;20.00;36133.87
1725354115.536;101;20.00;34304.27
1725354115.586;33;20.00;38779.87
1725354115.636;33;20.00;38779.87
1725354115.685;33;20.00;38779.87
1725354115.736;33;20.00;38779.87
1725354115.836;78;20.00;35814.00
1725354115.886;90;20.00;35056.67
1725354115.935;90;20.00;35056.67
1725354115.986;90;20.00;35056.67
1725354116.036;90;20.00;35056.67
1725354116.086;105;20.00;34048.54
1725354116.136;79;20.00;35750.20
1725354116.186;90;20.00;35052.54
1725354116.235;93;20.00;34833.46
1725354116.286;93;20.00;34833.46
1725354116.337;93;20.00;34833.46
1725354116.387;105;20.00;34035.20
1725354116.437;43;20.00;38117.87
1725354116.488;70;20.00;36340.13
1725354116.538;72;20.00;36173.07
1725354116.588;72;20.00;36173.07
1725354116.638;72;20.00;36173.07
1725354116.690;33;20.00;38752.54
1725354116.741;81;20.00;35643.20
1725354116.790;94;20.00;34736.73
1725354116.841;94;20.00;34736.73
1725354116.891;94;20.00;34736.73
1725354116.942;94;20.00;34736.73
1725354116.991;68;20.00;36451.73
1725354117.041;83;20.00;35471.87
1725354117.093;49;20.00;37685.27
1725354117.143;88;20.00;35128.93
1725354117.192;88;20.00;35128.93
1725354117.243;88;20.00;35128.93
1725354117.293;41;20.00;38238.07
1725354117.343;80;20.00;35669.20
1725354117.393;30;20.00;38971.73
1725354117.443;34;20.00;38705.46
1725354117.493;34;20.00;38705.46
1725354117.543;34;20.00;38705.46
1725354117.593;79;20.00;35765.33
1725354117.693;75;20.00;35995.46
1725354117.743;75;20.00;35995.46
1725354117.793;75;20.00;35995.46
1725354117.844;46;20.00;37901.73
1725354117.893;106;20.00;34002.93
1725354117.943;36;20.00;38584.67
1725354117.994;36;20.00;38584.67
1725354118.043;36;20.00;38584.67
1725354118.095;36;20.00;38584.67
1725354118.145;96;20.00;34635.87
1725354118.195;91;20.00;34940.54
1725354118.246;105;20.00;34066.60
1725354118.295;106;20.00;33952.93
1725354118.345;106;20.00;33952.93
1725354118.396;106;20.00;33952.93
1725354118.446;85;20.00;35333.73
1725354118.495;84;20.00;35424.93
1725354118.545;50;20.00;37632.00
1725354118.596;72;20.00;36224.13
1725354118.645;55;20.00;37325.33
1725354118.696;55;20.00;37325.33
1725354118.745;55;20.00;37325.33
1725354118.796;65;20.00;36662.27
1725354118.896;32;20.00;38790.80
1725354118.946;28;20.00;39089.46
1725354118.996;28;20.00;39089.46
1725354119.046;28;20.00;39089.46
1725354119.096;55;20.00;37307.07
1725354119.147;77;20.00;35892.13
1725354119.197;62;20.00;36881.07
1725354119.247;62;20.00;36881.07
1725354119.297;62;20.00;36881.07
1725354119.346;62;20.00;36881.07
1725354119.397;96;20.00;34618.54
1725354119.447;81;20.00;35588.27
1725354119.497;105;20.00;34075.87
1725354119.547;105;20.00;34075.87
1725354119.597;105;20.00;34075.87
1725354119.647;105;20.00;34075.87
1725354119.697;47;20.00;37864.00
1725354119.747;87;20.00;35206.67
1725354119.947;88;20.00;35162.40
1725354119.997;32;20.00;38846.13
1725354120.048;107;20.00;33882.13
1725354120.097;107;20.00;33882.13
1725354120.147;107;20.00;33882.13
1725354120.198;107;20.00;33882.13
1725354120.247;102;20.00;34231.27
1725354120.299;103;20.00;34182.00
1725354120.349;78;20.00;35787.33
1725354120.398;78;20.00;35787.33
1725354120.449;78;20.00;35787.33
1725354120.500;78;20.00;35787.33
1725354120.550;67;20.00;36547.33
1725354120.600;27;20.00;39122.27
1725354120.650;61;20.00;36931.20
1725354120.700;83;20.00;35459.73
1725354120.751;83;20.00;35459.73
1725354120.801;83;20.00;35459.73
1725354120.850;57;20.00;37154.80
1725354120.901;73;20.00;36168.67
1725354120.951;57;20.00;37216.13
1725354121.002;54;20.00;37367.33
1725354121.053;54;20.00;37367.33
1725354121.103;54;20.00;37367.33
1725354121.152;54;20.00;37367.33
1725354121.203;103;20.00;34149.20
1725354121.252;101;20.00;34334.80
1725354121.302;54;20.00;37384.93
1725354121.353;39;20.00;38336.93
1725354256.846;101;10.00;34285.73
1725354256.896;101;10.00;34285.73
1725354256.945;101;10.00;34285.73
1725354256.996;101;10.00;34285.73
1725354257.096;107;10.00;33915.73
1725354257.146;103;10.00;34197.87
1725354257.196;103;10.00;34197.87
1725354257.246;103;10.00;34197.87
1725354257.296;95;10.00;34711.33
1725354257.346;85;10.00;35343.73
1725354257.396;52;10.00;37506.93
1725354257.446;39;10.00;38363.27
1725354257.496;39;10.00;38363.27
1725354257.546;39;10.00;38363.27
1725354257.596;39;10.00;38363.27
1725354257.646;65;10.00;36689.60
1725354257.696;64;10.00;36716.13
1725354257.746;64;10.00;36735.73
1725354257.796;108;10.00;33878.40
1725354257.846;108;10.00;33878.40
1725354257.896;108;10.00;33878.40
1725354257.946;108;10.00;33819.73
1725354257.996;45;10.00;37952.40
1725354258.046;40;10.00;38278.27
1725354258.096;90;10.00;35042.93
1725354258.147;49;10.00;37727.54
1725354258.197;49;10.00;37727.54
1725354258.247;49;10.00;37727.54
1725354258.296;96;10.00;34651.46
1725354258.346;81;10.00;35593.60
1725354258.397;99;10.00;34459.20
1725354258.447;99;10.00;34459.20
1725354258.497;99;10.00;34459.20
1725354258.547;99;10.00;34459.20
1725354258.597;97;10.00;34595.80
1725354258.647;73;10.00;36123.60
1725354258.697;49;10.00;37697.33
1725354258.748;66;10.00;36575.33
1725354258.797;66;10.00;36575.33
1725354258.847;66;10.00;36575.33
1725354258.897;61;10.00;36930.54
1725354258.948;66;10.00;36580.40
1725354258.998;85;10.00;35343.73
1725354259.048;85;10.00;35343.73
1725354259.098;85;10.00;35343.73
1725354259.147;85;10.00;35343.73
1725354259.198;74;10.00;36070.00
1725354259.256;72;10.00;36203.73
1725354259.303;101;10.00;34308.00
1725354259.354;88;10.00;35179.46
1725354259.403;33;10.00;38730.27
1725354259.454;33;10.00;38730.27
1725354259.504;33;10.00;38730.27
1725354259.554;58;10.00;37112.27
1725354259.653;63;10.00;36823.20
1725354259.703;107;10.00;33901.60
1725354259.754;107;10.00;33901.60
1725354259.805;107;10.00;33901.60
1725354259.856;107;10.00;33901.60
1725354259.906;86;10.00;35267.46
1725354260.007;33;10.00;38746.93
1725354260.056;33;10.00;38728.40
1725354260.107;33;10.00;38728.40
1725354260.156;33;10.00;38728.40
1725354260.206;33;10.00;38728.40
1725354260.257;95;10.00;34721.33
1725354260.307;106;10.00;33971.60
1725354260.356;95;10.00;34710.67
1725354260.407;92;10.00;34893.54
1725354260.457;92;10.00;34893.54
1725354260.507;92;10.00;34893.54
1725354260.557;74;10.00;36099.73
1725354260.606;87;10.00;35219.07
1725354260.706;43;10.00;38105.87
1725354260.757;43;10.00;38105.87
1725354260.807;43;10.00;38105.87
1725354260.857;98;10.00;34508.67
1725354260.906;82;10.00;35547.60
1725354260.957;81;10.00;35642.54
1725354261.006;78;10.00;35792.73
1725354261.057;78;10.00;35792.73
1725354261.108;78;10.00;35792.73
1725354261.158;75;10.00;36009.00
1725354261.208;76;10.00;35971.46
1725354261.259;68;10.00;36478.54
1725354261.309;52;10.00;37490.13
1725354261.359;52;10.00;37490.13
1725354261.409;52;10.00;37490.13
1725354261.460;88;10.00;35130.27
1725354261.509;88;10.00;35125.80
1725354261.560;67;10.00;36543.33
1725354261.610;66;10.00;36603.60
1725354261.659;66;10.00;36603.60
1725354261.710;66;10.00;36603.60
1725354261.760;103;10.00;34154.93
1725354261.809;60;10.00;36994.80
1725354261.860;62;10.00;36829.80
1725354261.909;48;10.00;37782.93
1725354261.959;48;10.00;37782.93
1725354262.010;48;10.00;37782.93
1725354262.060;48;10.00;37782.93
1725354262.110;102;10.00;34228.00
1725354262.160;102;10.00;34271.33
1725354262.210;108;10.00;33819.46
1725354262.260;108;10.00;33819.46
1725354262.310;108;10.00;33819.46
1725354262.360;108;10.00;33819.46
1725354262.411;46;10.00;37912.54
1725354262.461;74;10.00;36100.27
1725354262.511;61;10.00;36920.93
1725354262.561;61;10.00;36920.93
1725354262.611;61;10.00;36920.93
1725354262.710;103;10.00;34153.07
1725354262.761;103;10.00;34153.07
1725354262.811;103;10.00;34153.07
1725354262.861;103;10.00;34153.07
1725354262.911;102;10.00;34226.67
1725354262.961;87;10.00;35218.13
1725354263.169;63;10.00;36798.20
1725354263.214;42;10.00;38167.33
1725354263.264;108;10.00;33831.33
1725354263.313;102;10.00;34234.87
1725354263.364;102;10.00;34234.87
1725354263.413;102;10.00;34234.87
1725354263.463;74;10.00;36083.07
1725354263.515;65;10.00;36652.67
1725354263.565;92;10.00;34882.46
1725354263.614;92;10.00;34882.46
1725354263.665;92;10.00;34882.46
1725354263.715;92;10.00;34882.46
1725354263.766;92;10.00;34895.20
1725354263.815;62;10.00;36826.93
1725354263.866;45;10.00;37946.54
1725354263.916;88;10.00;35182.67
1725354263.966;88;10.00;35182.67
1725354264.016;88;10.00;35182.67
1725354264.066;108;10.00;33828.67
1725354264.116;60;10.00;36976.54
1725354264.166;105;10.00;34024.73
1725354278.781;103;10.00;34151.07
1725354279.033;104;10.00;34125.00
1725354279.083;103;10.00;34175.46
1725354279.132;103;10.00;34175.46
1725354279.183;103;10.00;34175.46
1725354279.333;42;10.00;38133.33
1725354279.383;42;10.00;38133.33
1725354279.433;42;10.00;38133.33
1725354279.484;42;10.00;38133.33
1725354279.533;78;10.00;35795.33
1725354279.583;74;10.00;36099.73
1725354279.633;97;10.00;34564.80
1725354279.684;97;10.00;34564.80
1725354279.733;97;10.00;34564.80
1725354279.783;73;10.00;36149.73
1725354279.833;69;10.00;36425.27
1725354279.883;99;10.00;34410.67
1725354279.934;44;10.00;38008.13
1725354279.983;44;10.00;38008.13
1725354280.034;44;10.00;38008.13
1725354280.084;44;10.00;38008.13
1725354280.134;93;10.00;34806.13
1725354280.184;75;10.00;36019.20
1725354280.238;67;10.00;36514.60
1725354280.284;99;10.00;34446.67
1725354280.335;77;10.00;35902.20
1725354280.386;77;10.00;35902.20
1725354280.436;77;10.00;35902.20
1725354280.486;84;10.00;35394.00
1725354280.536;44;10.00;38044.67
1725354280.586;69;10.00;36369.60
1725354280.635;71;10.00;36243.46
1725354280.686;71;10.00;36243.46
1725354280.736;71;10.00;36243.46
1725354280.787;71;10.00;36243.46
1725354280.837;83;10.00;35514.13
1725354280.887;84;10.00;35432.93
1725354280.937;55;10.00;37290.13
1725354280.987;89;10.00;35115.46
1725354281.037;57;10.00;37196.27
1725354281.087;57;10.00;37196.27
1725354281.137;57;10.00;37196.27
1725354281.187;103;10.00;34143.87
1725354281.237;74;10.00;36104.40
1725354281.287;78;10.00;35785.87
1725354281.337;65;10.00;36641.33
1725354281.387;65;10.00;36641.33
1725354281.437;65;10.00;36641.33
1725354281.488;48;10.00;37741.60
1725354281.537;46;10.00;37910.00
1725354281.587;54;10.00;37383.67
1725354281.637;61;10.00;36917.60
1725354281.688;61;10.00;36917.60
1725354281.739;61;10.00;36917.60
1725354281.788;108;10.00;33848.27
1725354281.838;99;10.00;34432.40
1725354281.888;95;10.00;34706.54
1725354281.939;85;10.00;35335.87
1725354281.988;85;10.00;35335.87
1725354282.038;85;10.00;35335.87
1725354282.088;62;10.00;36831.60
1725354282.138;103;10.00;34160.80
1725354282.188;103;10.00;34160.80
1725354282.238;103;10.00;34160.80
1725354282.288;103;10.00;34160.80
1725354282.339;66;10.00;36571.46
1725354282.389;77;10.00;35860.93
1725354282.438;66;10.00;36604.54
1725354282.488;66;10.00;36604.54
1725354282.538;66;10.00;36604.54
1725354282.588;92;10.00;34867.07
1725354282.738;85;10.00;35365.46
1725354282.789;85;10.00;35365.46
1725354282.839;85;10.00;35365.46
1725354282.890;88;10.00;35164.27
1725354282.939;52;10.00;37497.60
1725354282.991;52;10.00;37497.60
1725354283.040;52;10.00;37497.60
1725354283.090;52;10.00;37497.60
1725354283.140;65;10.00;36678.07
1725354283.191;96;10.00;34606.93
1725354283.240;80;10.00;35681.20
1725354283.290;98;10.00;34506.73
1725354283.340;98;10.00;34506.73
1725354283.391;98;10.00;34506.73
1725354283.441;99;10.00;34446.20
1725354283.491;68;10.00;36493.20
1725354283.542;66;10.00;36570.54
1725354283.591;46;10.00;37884.93
1725354283.641;79;10.00;35758.67
1725354283.691;79;10.00;35758.67
1725354283.742;79;10.00;35758.67
1725354283.792;90;10.00;35033.46
1725354283.842;66;10.00;36577.93
1725354283.893;71;10.00;36259.73
1725354283.945;71;10.00;36259.73
1725354283.992;71;10.00;36259.73
1725354284.044;71;10.00;36259.73
1725354284.093;71;10.00;36259.73
1725354284.144;65;10.00;36651.73
1725354284.193;54;10.00;37390.27
1725354284.245;62;10.00;36885.07
1725354284.294;62;10.00;36885.07
1725354284.345;62;10.00;36885.07
1725354284.395;86;10.00;35278.13
1725354284.444;57;10.00;37197.33
1725354284.495;54;10.00;37408.67
1725354284.545;54;10.00;37408.67
1725354284.595;54;10.00;37408.67
1725354284.645;54;10.00;37408.67
1725354284.696;84;10.00;35403.73
1725354284.745;54;10.00;37353.46
1725354284.796;69;10.00;36428.93
1725354284.846;102;10.00;34228.40
1725354284.896;102;10.00;34228.40
1725354284.946;102;10.00;34228.40
1725354284.996;59;10.00;37041.07
1725354285.047;98;10.00;34520.27
1725354285.097;109;10.00;33759.07
1725354285.147;109;10.00;33759.07
1725354285.196;109;10.00;33759.07
1725354285.247;89;10.00;35069.33
1725354285.297;96;10.00;34602.40
1725354285.347;52;10.00;37512.80
1725354285.396;68;10.00;36457.60
1725354285.448;37;10.00;38469.46
1725354285.498;37;10.00;38469.46
1725354285.548;37;10.00;38469.46
1725354285.597;77;10.00;35859.40
1725354285.648;71;10.00;36264.00
1725354285.698;79;10.00;35727.07
1725354285.748;71;10.00;36251.20
1725354285.798;71;10.00;36251.20
1725354285.848;71;10.00;36251.20
1725354285.898;37;10.00;38464.00
1725354285.948;107;10.00;33883.46
1725354285.997;74;10.00;36079.80
1725354286.048;74;10.00;36079.80
1725354286.098;74;10.00;36079.80
1725354286.148;74;10.00;36079.80
1725354286.197;85;10.00;35370.54
1725354286.249;94;10.00;34789.60
1725354286.299;94;10.00;34789.60
1725354286.350;94;10.00;34789.60
1725354286.399;93;10.00;34840.33
1725354286.449;102;10.00;34254.80
1725354286.499;103;10.00;34173.07
1725354301.599;94;10.00;34771.46
1725354301.650;81;10.00;35627.46
1725354301.700;94;10.00;34754.67
1725354301.750;94;10.00;34754.67
1725354301.800;94;10.00;34754.67
1725354301.851;94;10.00;34754.67
1725354301.902;73;10.00;36139.46
1725354301.952;83;10.00;35512.54
1725354302.003;95;10.00;34677.54
1725354302.052;95;10.00;34677.54
1725354302.102;95;10.00;34677.54
1725354302.152;105;10.00;34060.13
1725354302.202;109;10.00;33775.07
1725354302.254;66;10.00;36598.13
1725354302.303;76;10.00;35930.54
1725354302.353;76;10.00;35930.54
1725354302.403;76;10.00;35930.54
1725354302.453;76;10.00;35930.54
1725354302.503;83;10.00;35479.20
1725354302.553;63;10.00;36765.46
1725354302.604;45;10.00;38002.00
1725354302.653;92;10.00;34880.00
1725354302.704;92;10.00;34880.00
1725354302.753;92;10.00;34880.00
1725354302.804;92;10.00;34880.00
1725354302.854;91;10.00;34929.20
1725354302.904;54;10.00;37413.07
1725354302.954;93;10.00;34834.40
1725354303.004;108;10.00;33843.60
1725354303.054;108;10.00;33843.60
1725354303.105;108;10.00;33843.60
1725354303.154;108;10.00;33843.60
1725354303.204;69;10.00;36428.80
1725354303.254;104;10.00;34121.46
1725354303.304;78;10.00;35819.46
1725354303.355;96;10.00;34624.80
1725354303.405;96;10.00;34624.80
1725354303.455;96;10.00;34624.80
1725354303.504;63;10.00;36789.07
1725354303.555;48;10.00;37777.87
1725354303.606;37;10.00;38519.73
1725354303.656;41;10.00;38218.00
1725354303.705;41;10.00;38218.00
1725354303.755;41;10.00;38218.00
1725354303.805;81;10.00;35607.87
1725354303.857;81;10.00;35590.33
1725354303.906;90;10.00;35050.40
1725354303.956;96;10.00;34662.00
1725354304.006;96;10.00;34662.00
1725354304.056;96;10.00;34662.00
1725354304.106;98;10.00;34516.93
1725354304.156;42;10.00;38154.67
1725354304.206;55;10.00;37339.46
1725354304.255;48;10.00;37763.46
1725354304.306;48;10.00;37763.46
1725354304.357;48;10.00;37763.46
1725354304.407;57;10.00;37202.67
1725354304.507;98;10.00;34473.07
1725354304.557;104;10.00;34105.20
1725354304.607;104;10.00;34105.20
1725354304.657;104;10.00;34105.20
1725354304.707;85;10.00;35350.80
1725354304.757;43;10.00;38088.93
1725354304.808;64;10.00;36723.73
1725354304.857;76;10.00;35921.73
1725354304.908;76;10.00;35921.73
1725354304.957;76;10.00;35921.73
1725354305.009;81;10.00;35640.13
1725354305.059;89;10.00;35074.67
1725354305.108;98;10.00;34516.00
1725354305.159;88;10.00;35160.67
1725354305.209;88;10.00;35160.67
1725354305.259;88;10.00;35160.67
1725354305.310;109;10.00;33801.13
1725354305.360;44;10.00;38010.13
1725354305.409;70;10.00;36346.40
1725354305.460;78;10.00;35794.27
1725354305.509;78;10.00;35794.27
1725354305.559;78;10.00;35794.27
1725354305.609;79;10.00;35735.60
1725354305.660;93;10.00;34814.27
1725354305.709;59;10.00;37024.00
1725354305.759;59;10.00;37024.00
1725354305.809;59;10.00;37024.00
1725354305.860;59;10.00;37024.00
1725354305.910;94;10.00;34794.93
1725354305.960;43;10.00;38095.73
1725354306.010;69;10.00;36412.67
1725354306.060;65;10.00;36632.54
1725354306.110;65;10.00;36632.54
1725354306.160;65;10.00;36632.54
1725354306.210;64;10.00;36695.60
1725354306.266;68;10.00;36481.46
1725354306.312;42;10.00;38162.67
1725354306.362;66;10.00;36567.07
1725354306.412;66;10.00;36567.07
1725354306.463;66;10.00;36567.07
1725354306.512;82;10.00;35570.40
1725354306.562;78;10.00;35838.13
1725354306.613;96;10.00;34649.73
1725354306.662;92;10.00;34862.54
1725354306.712;92;10.00;34862.54
1725354306.762;92;10.00;34862.54
1725354306.812;93;10.00;34806.27
1725354306.862;74;10.00;36066.13
1725354306.913;65;10.00;36666.40
1725354306.963;45;10.00;37983.33
1725354307.013;45;10.00;37983.33
1725354307.064;45;10.00;37983.33
1725354307.113;52;10.00;37489.20
1725354307.165;72;10.00;36173.87
1725354307.214;75;10.00;35995.20
1725354307.264;75;10.00;35995.20
1725354307.315;75;10.00;35995.20
1725354307.366;75;10.00;35995.20
1725354307.416;66;10.00;36608.00
1725354307.466;35;10.00;38639.73
1725354307.517;35;10.00;38639.73
1725354307.567;35;10.00;38639.73
1725354307.616;35;10.00;38639.73
1725354307.667;35;10.00;38639.73
1725354307.717;38;10.00;38397.20
1725354307.818;81;10.00;35595.46
1725354307.868;101;10.00;34308.80
1725354307.918;101;10.00;34308.80
1725354307.968;101;10.00;34308.80
1725354308.017;65;10.00;36658.46
1725354308.068;96;10.00;34603.54
1725354308.118;100;10.00;34340.93
1725354308.168;86;10.00;35280.67
1725354308.218;86;10.00;35280.67
1725354308.268;86;10.00;35280.67
1725354308.319;106;10.00;33983.60
1725354308.368;53;10.00;37475.27
1725354308.418;87;10.00;35191.73
1725354308.468;55;10.00;37304.00
1725354308.518;55;10.00;37304.00
1725354308.568;55;10.00;37304.00
1725354308.618;32;10.00;38816.27
1725354308.668;93;10.00;34811.46
1725354308.718;81;10.00;35586.67
1725354308.769;45;10.00;37964.27
1725354308.818;45;10.00;37964.27
1725354308.868;45;10.00;37964.27
1725354308.918;59;10.00;37027.33
1725354308.969;89;10.00;35093.20
1725354309.019;71;10.00;36255.46
1725354309.220;93;10.00;34831.73
1725354309.270;42;10.00;38144.93
1725354309.319;99;10.00;34408.27
1725354309.371;99;10.00;34408.27
1725354309.421;99;10.00;34408.27
1725354309.471;99;10.00;34408.27
1725354309.572;79;10.00;35730.27
1725354309.621;91;10.00;34979.60
1725354400.266;104;40.00;34141.07
1725354400.317;103;40.00;34206.27
1725354400.366;103;40.00;34206.27
1725354400.417;103;40.00;34206.27
1725354400.467;103;40.00;34206.27
1725354400.517;93;40.00;34847.60
1725354400.567;41;40.00;38225.73
1725354400.617;40;40.00;38277.33
1725354400.667;35;40.00;38627.87
1725354400.717;35;40.00;38627.87
1725354400.767;35;40.00;38627.87
1725354400.818;58;40.00;37126.27
1725354400.867;87;40.00;35211.46
1725354400.967;85;40.00;35351.60
1725354401.017;85;40.00;35351.60
1725354401.067;85;40.00;35351.60
1725354401.117;96;40.00;34651.73
1725354401.167;87;40.00;35197.73
1725354401.217;89;40.00;35091.87
1725354401.267;89;40.00;35091.87
1725354401.318;89;40.00;35091.87
1725354401.367;89;40.00;35091.87
1725354401.417;54;40.00;37356.00
1725354401.467;87;40.00;35237.46
1725354401.518;94;40.00;34768.40
1725354401.569;105;40.00;34020.00
1725354401.619;105;40.00;34020.00
1725354401.668;105;40.00;34020.00
1725354401.719;105;40.00;34020.00
1725354401.768;75;40.00;35992.07
1725354401.818;97;40.00;34567.46
1725354401.869;43;40.00;38108.67
1725354401.919;38;40.00;38420.54
1725354401.969;27;40.00;39114.93
1725354402.019;27;40.00;39114.93
1725354402.069;27;40.00;39114.93
1725354402.119;27;40.00;39114.93
1725354402.169;59;40.00;37029.00
1725354402.220;48;40.00;37804.93
1725354402.269;63;40.00;36821.46
1725354402.320;69;40.00;36399.54
1725354402.369;69;40.00;36399.54
1725354402.420;69;40.00;36399.54
1725354402.470;69;40.00;36399.54
1725354402.519;104;40.00;34141.07
1725354402.570;59;40.00;37032.27
1725354402.620;46;40.00;37890.54
1725354402.670;103;40.00;34163.20
1725354402.720;103;40.00;34163.20
1725354402.769;103;40.00;34163.20
1725354402.821;103;40.00;34163.20
1725354402.871;49;40.00;37729.46
1725354402.921;98;40.00;34506.93
1725354402.971;65;40.00;36678.93
1725354403.021;86;40.00;35265.20
1725354403.070;86;40.00;35265.20
1725354403.120;86;40.00;35265.20
1725354403.170;86;40.00;35265.20
1725354403.221;50;40.00;37670.00
1725354403.271;43;40.00;38075.07
1725354403.322;46;40.00;37904.00
1725354403.371;57;40.00;37160.13
1725354403.422;57;40.00;37160.13
1725354403.471;57;40.00;37160.13
1725354403.522;57;40.00;37160.13
1725354403.572;97;40.00;34535.20
1725354403.622;55;40.00;37289.07
1725354403.672;28;40.00;39089.60
1725354403.722;28;40.00;39089.60
1725354403.772;28;40.00;39089.60
1725354403.822;36;40.00;38526.13
1725354403.872;104;40.00;34095.87
1725354403.922;79;40.00;35761.60
1725354403.974;70;40.00;36319.73
1725354404.023;70;40.00;36319.73
1725354404.073;70;40.00;36319.73
1725354404.173;51;40.00;37588.40
1725354404.224;60;40.00;36971.80
1725354404.274;63;40.00;36797.33
1725354404.323;63;40.00;36797.33
1725354404.374;63;40.00;36797.33
1725354404.424;70;40.00;36358.13
1725354404.524;59;40.00;37073.07
1725354404.574;39;40.00;38388.93
1725354404.624;39;40.00;38388.93
1725354404.674;39;40.00;38388.93
1725354404.724;39;40.00;38388.93
1725354404.774;107;40.00;33881.07
1725354404.824;36;40.00;38536.46
1725354404.874;47;40.00;37863.20
1725354404.924;47;40.00;37863.20
1725354404.974;47;40.00;37863.20
1725354405.026;47;40.00;37863.20
1725354405.075;41;40.00;38261.73
1725354405.126;72;40.00;36224.80
1725354405.176;90;40.00;35030.67
1725354405.226;90;40.00;35030.67
1725354405.276;90;40.00;35030.67
1725354405.326;90;40.00;35030.67
1725354405.376;69;40.00;36394.46
1725354405.426;78;40.00;35830.40
1725354405.476;81;40.00;35598.67
1725354405.526;81;40.00;35598.67
1725354405.576;81;40.00;35598.67
1725354405.626;81;40.00;35598.67
1725354405.676;52;40.00;37485.60
1725354405.727;89;40.00;35115.87
1725354405.776;109;40.00;33797.87
1725354405.827;109;40.00;33797.87
1725354405.877;109;40.00;33797.87
1725354405.927;107;40.00;33899.73
1725354405.977;36;40.00;38558.13
1725354406.027;39;40.00;38388.67
1725354406.077;39;40.00;38388.67
1725354406.127;39;40.00;38388.67
1725354406.177;39;40.00;38388.67
1725354406.227;83;40.00;35451.07
1725354406.276;60;40.00;36975.60
1725354406.327;45;40.00;37958.27
1725354406.377;60;40.00;37013.87
1725354406.427;60;40.00;37013.87
1725354406.477;60;40.00;37013.87
1725354406.527;60;40.00;37013.87
1725354406.576;95;40.00;34676.46
1725354406.627;72;40.00;36171.20
1725354406.677;46;40.00;37906.80
1725354406.727;46;40.00;37906.80
1725354406.777;46;40.00;37906.80
1725354406.827;46;40.00;37906.80
1725354406.927;82;40.00;35577.87
1725354406.977;47;40.00;37861.87
1725354407.027;32;40.00;38826.40
1725354407.077;33;40.00;38732.20
1725354407.128;33;40.00;38732.20
1725354407.177;33;40.00;38732.20
1725354407.228;92;40.00;34907.33
1725354407.278;45;40.00;37946.27
1725354407.329;83;40.00;35506.54
1725354407.378;33;40.00;38786.80
1725354407.429;33;40.00;38786.80
1725354407.479;33;40.00;38786.80
1725354407.529;47;40.00;37824.13
1725354407.579;97;40.00;34549.46
1725354407.629;77;40.00;35871.07
1725354407.830;61;40.00;36916.27
1725354407.880;108;40.00;33816.13
1725354407.930;108;40.00;33816.13
1725354407.980;108;40.00;33816.13
1725354408.030;108;40.00;33816.13
1725354408.081;108;40.00;33816.13
1725354408.182;105;40.00;34060.13
1725354408.232;37;40.00;38525.46
1725354408.282;58;40.00;37121.60
1725354408.332;58;40.00;37121.60
1725354408.381;58;40.00;37121.60
1725354408.432;58;40.00;37121.60
1725354408.482;44;40.00;38059.73
1725354408.533;101;40.00;34327.07
1725354423.264;108;40.00;33870.80
1725354423.466;92;40.00;34889.20
1725354423.716;109;40.00;33781.87
1725354423.816;93;40.00;34860.93
1725354423.866;93;40.00;34860.93
1725354423.916;93;40.00;34860.93
1725354423.967;94;40.00;34786.00
1725354424.017;39;40.00;38355.46
1725354424.067;39;40.00;38355.46
1725354424.117;39;40.00;38355.46
1725354424.167;39;40.00;38355.46
1725354424.217;99;40.00;34436.93
1725354424.268;56;40.00;37241.07
1725354424.317;78;40.00;35833.60
1725354424.368;47;40.00;37830.67
1725354424.417;47;40.00;37830.67
1725354424.468;47;40.00;37830.67
1725354424.517;47;40.00;37830.67
1725354424.618;53;40.00;37465.46
1725354424.668;81;40.00;35604.00
1725354424.718;39;40.00;38329.40
1725354424.768;39;40.00;38329.40
1725354424.818;39;40.00;38329.40
1725354424.868;87;40.00;35205.73
1725354424.918;78;40.00;35798.54
1725354424.968;71;40.00;36240.80
1725354425.018;100;40.00;34369.07
1725354425.069;100;40.00;34369.07
1725354425.119;100;40.00;34369.07
1725354425.169;103;40.00;34150.27
1725354425.219;63;40.00;36793.60
1725354425.269;97;40.00;34553.46
1725354425.318;78;40.00;35780.00
1725354425.369;78;40.00;35780.00
1725354425.419;78;40.00;35780.00
1725354425.469;71;40.00;36275.07
1725354425.519;69;40.00;36377.73
1725354425.570;84;40.00;35433.07
1725354425.620;84;40.00;35433.07
1725354425.670;84;40.00;35433.07
1725354425.720;84;40.00;35433.07
1725354425.771;89;40.00;35084.13
1725354425.821;68;40.00;36492.54
1725354425.870;68;40.00;36492.54
1725354425.920;68;40.00;36492.54
1725354425.971;68;40.00;36492.54
1725354426.020;45;40.00;37985.33
1725354426.072;46;40.00;37910.93
1725354426.121;102;40.00;34230.54
1725354426.172;65;40.00;36672.00
1725354426.221;65;40.00;36672.00
1725354426.272;65;40.00;36672.00
1725354426.322;65;40.00;36672.00
1725354426.372;77;40.00;35858.13
1725354426.421;54;40.00;37363.07
1725354426.471;59;40.00;37076.13
1725354426.521;55;40.00;37323.60
1725354426.572;55;40.00;37323.60
1725354426.622;55;40.00;37323.60
1725354426.672;53;40.00;37477.87
1725354426.722;90;40.00;35023.07
1725354426.771;90;40.00;35023.07
1725354426.821;62;40.00;36826.27
1725354426.871;62;40.00;36826.27
1725354426.921;62;40.00;36826.27
1725354426.972;62;40.00;36826.27
1725354427.021;51;40.00;37583.87
1725354427.072;46;40.00;37926.80
1725354427.323;94;40.00;34764.27
1725354427.372;60;40.00;37005.60
1725354427.423;107;40.00;33931.46
1725354427.674;49;40.00;37706.00
1725354428.328;106;40.00;34006.27
1725354428.378;106;40.00;34006.27
1725354428.428;106;40.00;34006.27
1725354428.528;66;40.00;36609.46
1725354428.578;66;40.00;36609.46
1725354428.628;66;40.00;36609.46
1725354428.678;66;40.00;36609.46
1725354428.728;59;40.00;37081.07
1725354428.778;108;40.00;33845.07
1725354428.828;53;40.00;37468.00
1725354428.879;53;40.00;37468.00
1725354428.928;53;40.00;37468.00
1725354428.979;53;40.00;37468.00
1725354429.029;103;40.00;34155.40
1725354429.079;38;40.00;38396.13
1725354429.132;75;40.00;36017.07
1725354429.179;90;40.00;35024.27
1725354429.230;90;40.00;35024.27
1725354429.280;90;40.00;35024.27
1725354429.331;90;40.00;35024.27
1725354429.381;100;40.00;34359.20
1725354429.430;66;40.00;36580.80
1725354429.481;37;40.00;38490.54
1725354429.531;109;40.00;33767.60
1725354429.581;109;40.00;33767.60
1725354429.631;109;40.00;33767.60
1725354429.681;106;40.00;33975.33
1725354429.731;48;40.00;37763.33
1725354429.782;98;40.00;34486.13
1725354429.831;41;40.00;38230.54
1725354429.883;41;40.00;38230.54
1725354429.932;41;40.00;38230.54
1725354429.983;107;40.00;33888.00
1725354430.032;43;40.00;38075.73
1725354430.132;109;40.00;33781.33
1725354430.183;109;40.00;33781.33
1725354430.232;109;40.00;33781.33
1725354430.283;67;40.00;36506.54
1725354430.333;108;40.00;33824.40
1725354430.383;108;40.00;33824.40
1725354430.433;107;40.00;33929.46
1725354430.482;107;40.00;33929.46
1725354430.533;107;40.00;33929.46
1725354430.584;56;40.00;37217.46
1725354430.685;41;40.00;38213.20
1725354430.734;41;40.00;38213.20
1725354430.786;41;40.00;38213.20
1725354430.835;41;40.00;38213.20
1725354430.886;109;40.00;33755.07
1725354430.936;52;40.00;37538.13
1725354430.986;51;40.00;37549.87
1725354445.935;105;40.00;34045.33
1725354445.985;97;40.00;34567.46
1725354446.034;97;40.00;34567.46
1725354446.086;97;40.00;34567.46
1725354446.136;97;40.00;34567.46
1725354446.186;108;40.00;33871.46
1725354446.236;48;40.00;37790.27
1725354446.337;47;40.00;37869.87
1725354446.388;47;40.00;37869.87
1725354446.438;47;40.00;37869.87
1725354446.488;63;40.00;36776.80
1725354446.539;90;40.00;35025.46
1725354446.639;39;40.00;38348.93
1725354446.689;39;40.00;38348.93
1725354446.739;39;40.00;38348.93
1725354446.789;74;40.00;36081.20
1725354446.838;103;40.00;34173.73
1725354446.890;68;40.00;36477.20
1725354446.940;89;40.00;35099.46
1725354446.989;89;40.00;35099.46
1725354447.041;89;40.00;35099.46
1725354447.092;97;40.00;34541.20
1725354447.141;91;40.00;34949.13
1725354447.192;108;40.00;33832.00
1725354447.241;43;40.00;38067.87
1725354447.291;43;40.00;38067.87
1725354447.341;43;40.00;38067.87
1725354447.391;43;40.00;38067.87
1725354447.443;38;40.00;38434.13
1725354447.493;33;40.00;38770.00
1725354447.542;39;40.00;38390.93
1725354447.592;39;40.00;38390.93
1725354447.642;39;40.00;38390.93
1725354447.693;54;40.00;37400.54
1725354447.743;80;40.00;35678.27
1725354447.843;79;40.00;35740.00
1725354447.894;79;40.00;35740.00
1725354447.943;79;40.00;35740.00
1725354448.145;52;40.00;37480.54
1725354448.195;52;40.00;37480.54
1725354448.245;52;40.00;37480.54
1725354448.344;98;40.00;34500.67
1725354448.395;90;40.00;35024.27
1725354448.445;99;40.00;34453.07
1725354448.496;99;40.00;34453.07
1725354448.546;99;40.00;34453.07
1725354448.596;95;40.00;34673.54
1725354448.646;64;40.00;36719.46
1725354448.697;40;40.00;38304.00
1725354448.746;35;40.00;38598.93
1725354448.797;35;40.00;38598.93
1725354448.847;35;40.00;38598.93
1725354448.897;45;40.00;37957.46
1725354448.947;44;40.00;38045.20
1725354448.997;44;40.00;38045.20
1725354449.047;44;40.00;38045.20
1725354449.097;44;40.00;38045.20
1725354449.147;103;40.00;34190.87
1725354449.196;62;40.00;36871.33
1725354449.247;64;40.00;36698.67
1725354449.296;91;40.00;34961.07
1725354449.347;77;40.00;35885.27
1725354449.397;77;40.00;35885.27
1725354449.446;77;40.00;35885.27
1725354449.497;36;40.00;38555.80
1725354449.597;66;40.00;36595.46
1725354449.647;49;40.00;37728.00
1725354449.698;49;40.00;37728.00
1725354449.748;49;40.00;37728.00
1725354449.848;80;40.00;35654.40
1725354449.898;66;40.00;36594.27
1725354449.948;82;40.00;35572.67
1725354449.998;82;40.00;35572.67
1725354450.049;82;40.00;35572.67
1725354450.149;52;40.00;37531.73
1725354450.199;63;40.00;36785.00
1725354450.249;63;40.00;36785.00
1725354450.299;63;40.00;36785.00
1725354450.350;62;40.00;36862.13
1725354450.399;78;40.00;35802.40
1725354450.449;79;40.00;35752.54
1725354450.551;64;40.00;36696.40
1725354450.600;64;40.00;36696.40
1725354450.651;64;40.00;36696.40
1725354450.702;40;40.00;38323.20
1725354450.752;49;40.00;37725.87
1725354450.801;105;40.00;34062.80
1725354450.852;70;40.00;36365.07
1725354450.902;70;40.00;36365.07
1725354450.952;70;40.00;36365.07
1725354451.002;63;40.00;36784.80
1725354451.052;83;40.00;35453.33
1725354451.101;91;40.00;34930.67
1725354451.152;79;40.00;35746.27
1725354451.202;79;40.00;35746.27
1725354451.251;79;40.00;35746.27
1725354451.303;55;40.00;37324.67
1725354451.402;48;40.00;37788.67
1725354451.453;89;40.00;35114.00
1725354451.502;89;40.00;35114.00
1725354451.553;89;40.00;35114.00
1725354451.614;89;40.00;35114.00
1725354451.654;104;40.00;34133.20
1725354451.806;99;40.00;34460.27
1725354451.856;99;40.00;34460.27
1725354451.906;99;40.00;34460.27
1725354452.006;40;40.00;38313.87
1725354452.056;105;40.00;34060.80
1725354452.106;41;40.00;38263.73
1725354452.156;41;40.00;38263.73
1725354452.206;41;40.00;38263.73
1725354452.256;41;40.00;38263.73
1725354452.306;108;40.00;33815.33
1725354452.356;53;40.00;37451.93
1725354452.406;68;40.00;36459.07
1725354452.456;68;40.00;36459.07
1725354452.506;68;40.00;36459.07
1725354452.556;68;40.00;36459.07
1725354452.606;36;40.00;38575.07
1725354452.656;51;40.00;37551.87
1725354452.711;51;40.00;37551.87
1725354452.757;51;40.00;37551.87
1725354452.807;51;40.00;37551.87
1725354452.858;51;40.00;37551.87
1725354452.908;45;40.00;37952.27
1725354453.008;37;40.00;38515.33
1725354453.057;38;40.00;38418.00
1725354453.108;38;40.00;38418.00
1725354453.158;38;40.00;38418.00
1725354453.208;50;40.00;37636.13
1725354453.257;84;40.00;35440.67
1725354453.309;58;40.00;37090.27
1725354453.359;58;40.00;37090.27
1725354453.409;58;40.00;37090.27
1725354453.458;58;40.00;37090.27
1725354453.559;100;40.00;34366.00
