UnixTimestamp;Microseconds;MilliAmpere;BaseValue
1726154327.726;500;1.00
1726154327.774;500;1.00
1726154327.823;500;1.00
1726154327.874;500;1.00
1726154327.923;500;1.00
1726154327.973;500;1.00
1726154328.023;500;1.00
1726154328.074;500;1.00
1726154328.125;500;1.00
1726154328.175;500;1.00
1726154328.225;500;1.00
1726154328.276;500;1.00
1726154328.325;500;1.00
1726154328.376;500;1.00
1726154328.426;500;1.00
1726154328.477;500;1.00
1726154332.088;1;40.00
1726154332.138;1;40.00
1726154332.188;1;40.00
1726154332.239;1;40.00
1726154332.288;1;40.00
1726154332.338;1;40.00
1726154332.388;1;40.00
1726154332.438;1;40.00
1726154332.488;1;40.00
1726154332.539;1;40.00
1726154332.589;1;40.00
1726154332.638;1;40.00
1726154332.689;1;40.00
1726154332.739;1;40.00
1726154332.789;1;40.00
1726154555.890;200;13.84;34317.87
1726154555.940;200;14.68;35373.07
1726154555.989;200;14.68;35373.07
1726154556.040;200;14.68;35373.07
1726154556.090;200;17.34;38698.60
1726154556.140;200;17.33;38684.93
1726154556.190;200;17.33;38684.93
1726154556.240;200;17.33;38684.93
1726154556.290;200;17.25;38581.00
1726154556.342;200;17.25;38581.00
1726154556.392;200;17.37;38737.40
1726154556.442;200;16.88;38125.60
1726154556.492;200;16.88;38125.60
1726154556.542;200;16.88;38125.60
1726154556.592;200;14.69;35378.27
1726154556.642;200;14.69;35378.27
1726154556.692;200;14.69;35378.27
1726154556.745;200;14.28;34869.60
1726154556.796;200;14.28;34869.60
1726154556.845;200;14.28;34869.60
1726154556.895;200;15.22;36044.27
1726154556.945;200;15.22;36044.27
1726154556.995;200;15.22;36044.27
1726154557.046;200;15.50;36390.40
1726154557.095;200;15.25;36079.40
1726154557.145;200;15.25;36079.40
1726154557.196;200;15.14;35943.54
1726154557.245;200;17.44;38822.40
1726154557.296;200;17.57;38982.13
1726154557.346;200;17.57;38982.13
1726154557.395;200;16.10;37146.20
1726154557.445;200;14.35;34962.46
1726154557.496;200;14.37;34981.27
1726154557.546;200;14.37;34981.27
1726154557.596;200;17.42;38801.07
1726154557.646;200;17.42;38801.07
1726154557.696;200;17.42;38801.07
1726154557.746;200;14.31;34909.20
1726154557.796;200;13.85;34331.87
1726154557.846;200;13.85;34331.87
1726154557.897;200;13.85;34331.87
1726154557.947;200;16.87;38113.20
1726154557.997;200;16.33;37426.46
1726154558.047;200;16.33;37426.46
1726154558.097;200;16.10;37147.46
1726154558.147;200;14.86;35594.60
1726154558.197;200;13.90;34390.00
1726154558.247;200;13.90;34390.00
1726154558.298;200;17.02;38291.93
1726154558.349;200;17.88;39365.33
1726154558.398;200;17.88;39365.33
1726154558.448;200;17.88;39365.33
1726154558.499;200;13.65;34076.20
1726154558.549;200;13.65;34076.20
1726154558.598;200;13.65;34076.20
1726154558.649;200;15.05;35836.93
1726154558.700;200;16.41;37536.93
1726154558.750;200;16.41;37536.93
1726154558.800;200;13.86;34349.73
1726154558.850;200;17.22;38551.80
1726154558.900;200;17.22;38551.80
1726154558.951;200;17.22;38551.80
1726154559.001;200;17.22;38541.33
1726154559.051;200;17.78;39249.00
1726154559.100;200;17.78;39249.00
1726154559.151;200;17.43;38808.13
1726154559.201;200;14.67;35351.93
1726154559.251;200;14.67;35351.93
1726154559.302;200;14.67;35351.93
1726154559.352;200;14.42;35047.00
1726154559.402;200;14.42;35047.00
1726154559.452;200;14.42;35047.00
1726154559.502;200;16.84;38066.87
1726154559.552;200;16.84;38066.87
1726154559.602;200;16.84;38066.87
1726154559.651;200;15.34;36200.40
1726154559.702;200;15.34;36200.40
1726154559.752;200;15.34;36200.40
1726154559.802;200;15.91;36907.93
1726154559.852;200;15.91;36907.93
1726154559.902;200;15.91;36907.93
1726154559.952;200;16.60;37769.40
1726154560.002;200;16.39;37508.33
1726154560.052;200;16.39;37508.33
1726154560.102;200;16.92;38169.40
1726154571.127;200;14.44;35074.40
1726154571.177;200;14.44;35074.40
1726154571.228;200;14.44;35074.40
1726154571.277;200;17.59;39005.87
1726154571.327;200;15.49;36384.93
1726154571.378;200;15.49;36384.93
1726154571.427;200;15.71;36658.40
1726154571.477;200;15.89;36877.67
1726154571.529;200;15.89;36877.67
1726154571.578;200;16.64;37815.20
1726154571.629;200;14.51;35153.33
1726154571.678;200;14.51;35153.33
1726154571.729;200;15.67;36613.13
1726154571.779;200;14.13;34685.20
1726154571.828;200;14.13;34685.20
1726154571.878;200;14.16;34724.40
1726154571.928;200;15.52;36416.73
1726154571.979;200;15.52;36416.73
1726154572.028;200;15.52;36416.73
1726154572.078;200;13.77;34228.54
1726154572.128;200;13.77;34228.54
1726154572.179;200;13.77;34228.54
1726154572.229;200;16.29;37384.73
1726154572.279;200;16.33;37432.00
1726154572.329;200;16.33;37432.00
1726154572.379;200;16.33;37432.00
1726154572.429;200;17.23;38558.60
1726154572.479;200;17.15;38455.93
1726154572.529;200;17.15;38455.93
1726154572.580;200;16.27;37363.67
1726154572.630;200;16.88;38125.00
1726154572.680;200;16.88;38125.00
1726154572.731;200;16.88;38125.00
1726154572.781;200;14.58;35248.60
1726154572.832;200;15.81;36781.33
1726154572.882;200;15.81;36781.33
1726154572.932;200;15.81;36781.33
1726154572.982;200;15.87;36860.80
1726154573.033;200;15.87;36860.80
1726154573.082;200;15.87;36860.80
1726154573.133;200;17.46;38845.27
1726154573.183;200;17.46;38845.27
1726154573.234;200;17.46;38845.27
1726154573.283;200;13.76;34214.20
1726154573.334;200;16.92;38170.54
1726154573.383;200;16.92;38170.54
1726154573.433;200;16.92;38170.54
1726154573.484;200;14.11;34659.07
1726154573.533;200;14.11;34659.07
1726154573.583;200;14.11;34659.07
1726154573.633;200;14.42;35047.33
1726154573.683;200;17.51;38914.33
1726154573.733;200;17.51;38914.33
1726154573.783;200;17.62;39046.00
1726154573.833;200;15.57;36485.80
1726154573.883;200;15.57;36485.80
1726154573.934;200;15.57;36485.80
1726154573.984;200;16.99;38263.87
1726154574.034;200;17.60;39020.40
1726154574.084;200;17.60;39020.40
1726154574.134;200;16.94;38190.73
1726154574.184;200;14.44;35070.54
1726154574.234;200;14.44;35070.54
1726154574.284;200;14.44;35070.54
1726154574.335;200;16.46;37592.54
1726154574.384;200;16.83;38052.20
1726154574.435;200;16.83;38052.20
1726154574.485;200;16.83;38052.20
1726154574.535;200;15.02;35788.33
1726154574.585;200;17.41;38786.60
1726154574.636;200;17.41;38786.60
1726154574.685;200;17.09;38378.46
1726154574.735;200;16.32;37417.80
1726154586.324;200;13.47;33861.73
1726154586.374;200;13.47;33861.73
1726154586.425;200;13.47;33861.73
1726154586.475;200;17.58;38997.13
1726154586.525;200;17.63;39056.20
1726154586.575;200;17.63;39056.20
1726154586.625;200;14.99;35752.27
1726154586.675;200;17.11;38411.73
1726154586.725;200;17.11;38411.73
1726154586.775;200;17.11;38411.73
1726154586.827;200;15.25;36082.93
1726154586.878;200;15.25;36082.93
1726154586.927;200;15.25;36082.93
1726154586.979;200;14.82;35540.46
1726154587.028;200;16.99;38252.27
1726154587.078;200;16.99;38252.27
1726154587.128;200;16.99;38252.27
1726154587.178;200;17.53;38938.67
1726154587.228;200;16.05;37086.46
1726154587.278;200;16.05;37086.46
1726154587.328;200;15.25;36087.07
1726154587.380;200;15.72;36672.13
1726154587.429;200;16.42;37549.87
1726154587.480;200;16.42;37549.87
1726154587.529;200;15.04;35817.93
1726154587.580;200;16.77;37978.13
1726154587.630;200;16.01;37035.13
1726154587.680;200;16.01;37035.13
1726154587.730;200;16.45;37586.67
1726154587.781;200;17.04;38325.00
1726154587.830;200;17.54;38941.80
1726154587.880;200;17.54;38941.80
1726154587.931;200;14.54;35191.67
1726154587.980;200;16.63;37802.73
1726154588.030;200;17.01;38285.40
1726154588.080;200;17.01;38285.40
1726154588.130;200;17.26;38592.13
1726154588.180;200;17.18;38498.00
1726154588.231;200;15.33;36182.33
1726154588.281;200;15.33;36182.33
1726154588.330;200;15.33;36182.33
1726154588.380;200;15.60;36519.80
1726154588.430;200;14.14;34689.20
1726154588.481;200;14.11;34650.27
1726154588.530;200;14.11;34650.27
1726154588.581;200;14.11;34650.27
1726154588.631;200;16.63;37811.33
1726154588.681;200;16.76;37968.93
1726154588.730;200;16.76;37968.93
1726154588.780;200;16.76;37968.93
1726154588.830;200;16.75;37953.00
1726154588.881;200;16.75;37953.00
1726154588.930;200;16.75;37953.00
1726154588.980;200;17.11;38408.80
1726154589.032;200;14.49;35129.46
1726154589.082;200;14.49;35129.46
1726154589.132;200;14.49;35129.46
1726154589.182;200;16.99;38255.27
1726154589.232;200;15.57;36480.27
1726154589.282;200;15.57;36480.27
1726154589.333;200;14.30;34893.20
1726154589.382;200;16.41;37535.40
1726154589.432;200;16.41;37535.40
1726154589.482;200;16.41;37535.40
1726154589.533;200;16.96;38221.67
1726154589.583;200;15.86;36850.46
1726154589.633;200;15.86;36850.46
1726154589.683;200;15.86;36850.46
1726154589.733;200;17.16;38472.67
1726154589.783;200;17.55;38955.80
1726154589.834;200;17.55;38955.80
1726154589.883;200;17.55;38955.80
1726154589.935;200;16.72;37915.27
1726154589.984;200;15.23;36052.46
1726154590.035;200;15.23;36052.46
1726154590.084;200;15.23;36052.46
1726154590.136;200;17.01;38285.80
1726154590.185;200;17.22;38545.00
1726154590.235;200;17.22;38545.00
1726154590.285;200;17.22;38545.00
1726154590.336;200;17.08;38365.93
1726154590.386;200;14.05;34577.46
1726154590.436;200;14.05;34577.46
1726154590.486;200;14.05;34577.46
1726154590.535;200;13.95;34459.07
1726154590.586;200;16.73;37928.67
1726154590.636;200;17.04;38318.46
1726154590.687;200;17.04;38318.46
1726154590.737;200;17.04;38318.46
1726154590.787;200;17.18;38497.46
1726154590.837;200;17.19;38506.07
1726154921.024;350;15.12;35917.93
1726154921.074;350;15.12;35917.93
1726154921.124;350;15.12;35917.93
1726154921.173;350;14.53;35178.80
1726154921.224;350;14.87;35603.60
1726154921.274;350;14.87;35603.60
1726154921.324;350;14.87;35603.60
1726154921.374;350;17.40;38772.54
1726154921.425;350;17.57;38978.67
1726154921.474;350;17.57;38978.67
1726154921.525;350;17.57;38978.67
1726154921.574;350;17.33;38680.67
1726154921.625;350;16.78;37999.93
1726154921.675;350;16.78;37999.93
1726154921.725;350;16.78;37999.93
1726154921.775;350;17.47;38863.33
1726154921.825;350;17.50;38901.73
1726154921.875;350;17.28;38618.33
1726154921.925;350;17.28;38618.33
1726154921.975;350;16.75;37953.13
1726154922.026;350;14.60;35264.00
1726154922.075;350;14.85;35582.40
1726154922.126;350;14.85;35582.40
1726154922.176;350;14.85;35582.40
1726154922.226;350;14.86;35590.46
1726154922.276;350;16.60;37773.46
1726154922.327;350;16.60;37773.46
1726154922.376;350;16.60;37773.46
1726154922.427;350;17.34;38697.67
1726154922.477;350;17.57;38977.20
1726154922.527;350;17.57;38977.20
1726154922.577;350;17.57;38977.20
1726154922.627;350;17.41;38786.07
1726154922.677;350;17.39;38762.20
1726154922.727;350;17.39;38762.20
1726154922.778;350;17.39;38762.20
1726154922.828;350;17.47;38863.46
1726154922.878;350;17.26;38600.20
1726154922.927;350;17.26;38600.20
1726154922.977;350;17.26;38600.20
1726154923.029;350;16.48;37615.46
1726154923.079;350;14.63;35303.80
1726154923.130;350;14.63;35303.80
1726154923.179;350;14.42;35048.93
1726154923.230;350;15.21;36027.07
1726154923.280;350;14.13;34682.40
1726154923.330;350;14.13;34682.40
1726154923.380;350;17.33;38684.93
1726154923.430;350;17.59;39007.73
1726154923.481;350;17.59;39007.73
1726154923.530;350;17.59;39007.73
1726154923.582;350;17.20;38523.00
1726154923.631;350;17.35;38712.93
1726154923.682;350;17.57;38987.93
1726154923.732;350;17.57;38987.93
1726154923.782;350;17.57;38987.93
1726154923.832;350;17.65;39079.87
1726154923.882;350;14.83;35552.07
1726154923.932;350;14.83;35552.07
1726154923.982;350;14.83;35552.07
1726154924.032;350;17.63;39054.73
1726154924.083;350;17.46;38844.67
1726154924.132;350;17.46;38844.67
1726154924.183;350;18.00;39521.00
1726154924.232;350;14.91;35657.40
1726154924.283;350;14.78;35497.67
1726154924.334;350;14.78;35497.67
1726154924.383;350;14.78;35497.67
1726154924.433;350;16.47;37604.33
1726154924.484;350;14.96;35723.07
1726154924.533;350;14.96;35723.07
1726154924.584;350;14.96;35723.07
1726154924.634;350;15.81;36778.87
1726154924.684;350;14.83;35559.00
1726154924.735;350;14.83;35559.00
1726154924.786;350;14.83;35559.00
1726154924.835;350;17.78;39244.54
1726154924.886;350;17.03;38302.46
1726154924.936;350;17.03;38302.46
1726154924.985;350;17.03;38302.46
1726154925.035;350;17.11;38407.13
1726154925.086;350;17.46;38846.87
1726154925.136;350;17.46;38846.87
1726154925.186;350;17.46;38846.87
1726154925.235;350;17.42;38796.07
1726154925.285;350;16.95;38206.33
1726154925.335;350;16.95;38206.33
1726154925.385;350;16.95;38206.33
1726154925.435;350;15.24;36070.87
1726154925.486;350;17.44;38824.73
1726154925.535;350;17.44;38824.73
1726154925.586;350;16.51;37662.07
1726154925.635;350;15.69;36630.93
1726154925.685;350;14.92;35674.13
1726154925.735;350;14.92;35674.13
1726154925.786;350;15.64;36572.87
1726154925.835;350;17.39;38758.20
1726154925.885;350;16.00;37022.07
1726154925.935;350;16.00;37022.07
1726154925.986;350;16.65;37829.33
1726154926.035;350;17.07;38355.46
1726154926.085;350;15.20;36024.46
1726154926.136;350;15.20;36024.46
1726154926.186;350;15.20;36024.46
1726154926.235;350;15.25;36078.07
1726154938.329;350;13.91;34401.07
1726154938.378;350;13.91;34401.07
1726154938.429;350;14.12;34668.00
1726154938.479;350;17.68;39123.13
1726154938.529;350;17.68;39123.13
1726154938.579;350;17.27;38610.67
1726154938.629;350;16.20;37276.00
1726154938.679;350;15.77;36733.07
1726154938.730;350;15.77;36733.07
1726154938.779;350;16.17;37228.00
1726154938.829;350;17.62;39047.93
1726154938.880;350;16.13;37178.46
1726154938.932;350;16.13;37178.46
1726154938.981;350;16.13;37178.46
1726154939.037;350;16.01;37035.07
1726154939.085;350;15.08;35870.13
1726154939.134;350;15.08;35870.13
1726154939.185;350;15.08;35870.13
1726154939.234;350;17.65;39079.73
1726154939.285;350;17.36;38717.13
1726154939.335;350;17.36;38717.13
1726154939.385;350;17.36;38717.13
1726154939.436;350;17.39;38753.27
1726154939.485;350;17.03;38310.60
1726154939.535;350;17.03;38310.60
1726154939.586;350;14.12;34671.46
1726154939.636;350;14.34;34950.00
1726154939.686;350;15.03;35810.80
1726154939.737;350;15.03;35810.80
1726154939.787;350;15.95;36957.67
1726154939.836;350;17.19;38503.60
1726154939.887;350;17.19;38503.60
1726154939.936;350;17.19;38503.60
1726154939.988;350;17.36;38716.40
1726154940.038;350;16.33;37435.46
1726154940.089;350;17.11;38412.33
1726154940.139;350;17.11;38412.33
1726154940.188;350;17.11;38412.33
1726154940.244;350;16.56;37716.87
1726154940.292;350;15.40;36268.20
1726154940.342;350;15.40;36268.20
1726154940.392;350;15.40;36268.20
1726154940.441;350;16.13;37177.54
1726154940.492;350;16.43;37554.13
1726154940.542;350;16.43;37554.13
1726154940.592;350;16.43;37554.13
1726154940.641;350;16.65;37830.60
1726154940.691;350;17.59;39014.33
1726154940.742;350;17.59;39014.33
1726154940.791;350;17.59;39014.33
1726154940.841;350;17.59;39014.33
1726154940.892;350;17.73;39189.07
1726154940.942;350;15.12;35914.67
1726154940.992;350;15.12;35914.67
1726154941.042;350;15.12;35914.67
1726154941.091;350;17.71;39157.80
1726154941.142;350;16.28;37365.87
1726154941.192;350;16.28;37365.87
1726154941.243;350;16.28;37365.87
1726154941.292;350;17.32;38669.54
1726154941.342;350;16.18;37244.33
1726154941.392;350;16.18;37244.33
1726154941.443;350;16.18;37244.33
1726154941.493;350;14.72;35416.67
1726154941.543;350;16.38;37497.46
1726154941.592;350;16.86;38093.20
1726154941.642;350;16.86;38093.20
1726154941.693;350;15.40;36265.46
1726154941.744;350;16.96;38216.07
1726154941.793;350;15.73;36680.54
1726154941.844;350;15.73;36680.54
1726154941.894;350;15.73;36680.54
1726154941.944;350;17.11;38402.54
1726154941.993;350;15.78;36740.46
1726154942.044;350;15.78;36740.46
1726154942.093;350;15.78;36740.46
1726154942.144;350;15.66;36595.27
1726154942.194;350;17.26;38597.54
1726154942.244;350;17.26;38597.54
1726154942.295;350;17.26;38597.54
1726154942.344;350;16.96;38221.27
1726154942.395;350;16.75;37952.73
1726154942.445;350;16.75;37952.73
1726154942.494;350;16.36;37471.00
1726154942.546;350;17.34;38695.87
1726154942.597;350;14.97;35736.93
1726154942.647;350;14.97;35736.93
1726154942.697;350;14.97;35736.93
1726154942.746;350;15.67;36608.07
1726154942.797;350;16.79;38009.87
1726154942.847;350;16.79;38009.87
1726154942.897;350;16.79;38009.87
1726154942.947;350;17.43;38806.27
1726154942.998;350;14.33;34927.60
1726154943.048;350;14.33;34927.60
1726154943.097;350;14.33;34927.60
1726154943.149;350;17.51;38912.93
1726154943.199;350;14.04;34566.13
1726154943.249;350;14.04;34566.13
1726154943.300;350;14.04;34566.13
1726154943.349;350;17.56;38971.60
1726154943.399;350;17.28;38620.80
1726154943.449;350;17.28;38620.80
1726154943.499;350;17.28;38620.80
1726154943.550;350;15.05;35830.73
1726154956.136;350;13.90;34387.93
1726154956.186;350;13.69;34129.20
1726154956.236;350;13.69;34129.20
1726154956.286;350;13.69;34129.20
1726154956.337;350;14.22;34791.20
1726154956.386;350;15.91;36910.93
1726154956.437;350;15.91;36910.93
1726154956.487;350;15.91;36910.93
1726154956.537;350;16.95;38207.20
1726154956.587;350;17.27;38611.67
1726154956.636;350;17.27;38611.67
1726154956.687;350;17.27;38611.67
1726154956.736;350;15.17;35983.00
1726154956.786;350;15.71;36653.40
1726154956.837;350;15.71;36653.40
1726154956.887;350;15.71;36653.40
1726154956.937;350;15.71;36653.40
1726154956.986;350;17.43;38813.00
1726154957.038;350;16.23;37306.33
1726154957.088;350;16.23;37306.33
1726154957.137;350;17.02;38296.73
1726154957.187;350;15.52;36415.87
1726154957.237;350;15.52;36415.87
1726154957.287;350;15.52;36415.87
1726154957.337;350;15.32;36169.87
1726154957.388;350;17.54;38951.33
1726154957.437;350;17.54;38951.33
1726154957.488;350;17.54;38951.33
1726154957.537;350;17.44;38822.87
1726154957.587;350;16.18;37244.46
1726154957.637;350;15.86;36847.40
1726154957.688;350;15.86;36847.40
1726154957.738;350;15.86;36847.40
1726154957.788;350;14.52;35175.07
1726154957.839;350;16.04;37065.54
1726154957.889;350;16.04;37065.54
1726154957.939;350;17.42;38794.33
1726154957.988;350;15.08;35873.87
1726154958.039;350;15.08;35873.87
1726154958.089;350;15.08;35873.87
1726154958.139;350;16.89;38132.33
1726154958.189;350;17.63;39061.93
1726154958.239;350;17.63;39061.93
1726154958.288;350;17.63;39061.93
1726154958.339;350;17.45;38833.93
1726154958.389;350;17.73;39188.87
1726154958.439;350;17.73;39188.87
1726154958.489;350;17.73;39188.87
1726154958.540;350;16.86;38093.40
1726154958.590;350;17.52;38917.27
1726154958.639;350;17.52;38917.27
1726154958.691;350;17.52;38917.27
1726154958.741;350;17.26;38594.07
1726154958.790;350;17.44;38823.13
1726154958.841;350;17.54;38941.54
1726154958.891;350;17.54;38941.54
1726154958.942;350;17.54;38941.54
1726154958.991;350;17.84;39325.20
1726154959.041;350;17.84;39325.20
1726154959.092;350;17.84;39325.20
1726154959.143;350;14.34;34940.80
1726154959.193;350;16.45;37583.20
1726154959.243;350;16.45;37583.20
1726154959.292;350;16.45;37583.20
1726154959.343;350;16.45;37583.20
1726154959.392;350;17.44;38820.67
1726154959.443;350;17.44;38820.67
1726154959.493;350;17.44;38820.67
1726154959.544;350;17.44;38820.67
1726154959.594;350;17.46;38851.67
1726154959.643;350;17.46;38851.67
1726154959.694;350;17.46;38851.67
1726154959.744;350;16.89;38133.60
1726154959.793;350;17.45;38828.73
1726154959.844;350;17.45;38828.73
1726154959.894;350;17.45;38828.73
1726154959.944;350;17.78;39249.60
1726154959.994;350;17.81;39283.93
1726154960.044;350;17.81;39283.93
1726154960.094;350;17.81;39283.93
1726154960.144;350;17.82;39293.20
1726154960.194;350;16.84;38074.07
1726154960.244;350;16.84;38074.07
1726154960.294;350;16.13;37185.46
1726154960.344;350;17.42;38789.73
1726154960.396;350;16.15;37213.40
1726154960.445;350;16.15;37213.40
1726154960.495;350;16.15;37213.40
1726154960.546;350;15.82;36789.80
1726154960.595;350;16.54;37689.20
1726154960.645;350;16.54;37689.20
1726154960.695;350;16.54;37689.20
1726154960.746;350;16.53;37679.67
1726154960.796;350;15.79;36758.40
1726154960.846;350;15.79;36758.40
1726154960.896;350;15.79;36758.40
1726154960.946;350;16.12;37166.00
1726154960.996;350;14.95;35708.93
1726154961.047;350;15.05;35827.67
1726154961.098;350;15.05;35827.67
1726154961.149;350;15.52;36414.54
1726154961.199;350;15.19;36002.40
1726154961.250;350;15.19;36002.40
1726154961.300;350;15.19;36002.40
1726154961.349;350;16.63;37803.40
1726155132.234;97;20.00;35394.67
1726155132.283;94;20.00;34798.67
1726155132.333;94;20.00;34798.67
1726155132.384;94;20.00;34798.67
1726155132.433;91;20.00;34398.73
1726155132.485;101;20.00;36085.80
1726155132.535;101;20.00;36085.80
1726155132.585;101;20.00;36085.80
1726155132.635;101;20.00;36085.80
1726155132.684;96;20.00;35214.73
1726155132.735;99;20.00;35731.20
1726155132.785;99;20.00;35731.20
1726155132.835;96;20.00;35247.60
1726155132.884;93;20.00;34750.80
1726155132.936;93;20.00;34750.80
1726155132.985;93;20.00;34750.80
1726155133.035;96;20.00;35252.13
1726155133.086;93;20.00;34617.20
1726155133.135;93;20.00;34617.20
1726155133.185;93;20.00;34617.20
1726155133.235;108;20.00;37415.54
1726155133.285;92;20.00;34501.46
1726155133.336;92;20.00;34501.46
1726155133.386;92;20.00;34501.46
1726155133.436;92;20.00;34501.46
1726155133.486;103;20.00;36551.40
1726155133.536;103;20.00;36551.40
1726155133.585;103;20.00;36551.40
1726155133.636;92;20.00;34494.80
1726155133.685;92;20.00;34578.07
1726155133.736;118;20.00;39326.60
1726155133.785;118;20.00;39326.60
1726155133.836;118;20.00;39326.60
1726155133.886;100;20.00;35952.54
1726155133.936;112;20.00;38192.80
1726155133.986;104;20.00;36625.20
1726155134.036;104;20.00;36625.20
1726155134.086;104;20.00;36625.20
1726155134.136;110;20.00;37757.00
1726155134.187;110;20.00;37779.93
1726155134.237;110;20.00;37779.93
1726155134.286;110;20.00;37779.93
1726155134.337;113;20.00;38416.73
1726155134.388;96;20.00;35268.87
1726155134.438;96;20.00;35268.87
1726155134.487;96;20.00;35268.87
1726155134.538;92;20.00;34436.40
1726155134.588;97;20.00;35376.54
1726155134.639;97;20.00;35376.54
1726155134.690;97;20.00;35376.54
1726155134.739;94;20.00;34852.20
1726155134.790;89;20.00;34006.80
1726155134.840;92;20.00;34587.07
1726155134.890;92;20.00;34587.07
1726155134.940;92;20.00;34587.07
1726155134.990;115;20.00;38709.60
1726155135.042;115;20.00;38709.60
1726155135.091;115;20.00;38709.60
1726155135.142;93;20.00;34657.13
1726155135.192;117;20.00;39072.40
1726155135.241;117;20.00;39072.40
1726155135.291;117;20.00;39072.40
1726155135.342;117;20.00;39106.60
1726155135.392;100;20.00;35882.33
1726155135.442;100;20.00;35882.33
1726155135.492;100;20.00;35882.33
1726155135.541;109;20.00;37694.46
1726155135.592;93;20.00;34623.67
1726155135.641;93;20.00;34623.67
1726155135.692;93;20.00;34623.67
1726155135.741;93;20.00;34623.67
1726155135.792;89;20.00;34014.80
1726155135.842;111;20.00;37930.27
1726155135.891;113;20.00;38267.73
1726155135.942;113;20.00;38267.73
1726155135.992;113;20.00;38267.73
1726155136.042;115;20.00;38632.27
1726155136.093;108;20.00;37406.93
1726155136.142;108;20.00;37406.93
1726155136.193;108;20.00;37406.93
1726155136.243;103;20.00;36585.20
1726155136.292;98;20.00;35561.07
1726155136.342;98;20.00;35561.07
1726155136.392;98;20.00;35561.07
1726155136.443;98;20.00;35683.13
1726155136.492;101;20.00;36094.07
1726155136.543;101;20.00;36094.07
1726155136.593;101;20.00;36094.07
1726155136.643;102;20.00;36237.07
1726155136.693;118;20.00;39315.13
1726155136.744;118;20.00;39315.13
1726155136.794;118;20.00;39315.13
1726155136.844;118;20.00;39322.13
1726155136.893;113;20.00;38407.27
1726155136.944;113;20.00;38407.27
1726155136.993;113;20.00;38407.27
1726155137.044;114;20.00;38476.80
1726155137.094;113;20.00;38245.93
1726155137.143;113;20.00;38245.93
1726155137.194;113;20.00;38245.93
1726155137.244;113;20.00;38394.07
1726155137.294;113;20.00;38308.73
1726155137.345;113;20.00;38308.73
1726155137.396;113;20.00;38308.73
1726155137.445;117;20.00;39063.33
1726155137.495;101;20.00;36053.93
1726155150.282;89;20.00;33865.46
1726155150.332;91;20.00;34401.46
1726155150.382;91;20.00;34401.46
1726155150.433;90;20.00;34095.46
1726155150.483;114;20.00;38489.40
1726155150.532;114;20.00;38489.40
1726155150.582;114;20.00;38489.40
1726155150.633;116;20.00;38871.13
1726155150.683;111;20.00;38034.07
1726155150.734;111;20.00;38034.07
1726155150.783;111;20.00;38034.07
1726155150.835;108;20.00;37398.00
1726155150.884;101;20.00;36155.73
1726155150.935;92;20.00;34586.40
1726155150.984;92;20.00;34586.40
1726155151.035;92;20.00;34586.40
1726155151.085;119;20.00;39490.87
1726155151.135;92;20.00;34529.60
1726155151.184;92;20.00;34529.60
1726155151.235;92;20.00;34529.60
1726155151.285;101;20.00;36081.33
1726155151.335;110;20.00;37782.93
1726155151.385;110;20.00;37782.93
1726155151.435;110;20.00;37782.93
1726155151.484;115;20.00;38685.80
1726155151.535;115;20.00;38685.80
1726155151.585;115;20.00;38685.80
1726155151.635;115;20.00;38685.80
1726155151.685;106;20.00;36971.20
1726155151.735;96;20.00;35218.80
1726155151.785;96;20.00;35218.80
1726155151.835;96;20.00;35218.80
1726155151.885;115;20.00;38774.80
1726155151.935;112;20.00;38235.07
1726155151.986;109;20.00;37608.46
1726155152.037;109;20.00;37608.46
1726155152.086;109;20.00;37608.46
1726155152.137;113;20.00;38414.40
1726155152.187;93;20.00;34752.40
1726155152.237;117;20.00;39114.87
1726155152.287;117;20.00;39114.87
1726155152.337;117;20.00;39114.87
1726155152.387;98;20.00;35587.27
1726155152.437;110;20.00;37737.80
1726155152.487;110;20.00;37737.80
1726155152.537;110;20.00;37737.80
1726155152.587;110;20.00;37737.80
1726155152.638;97;20.00;35359.40
1726155152.687;110;20.00;37824.67
1726155152.738;110;20.00;37824.67
1726155152.787;110;20.00;37824.67
1726155152.837;98;20.00;35577.87
1726155152.888;103;20.00;36561.73
1726155152.938;102;20.00;36394.40
1726155152.995;102;20.00;36394.40
1726155153.042;102;20.00;36394.40
1726155153.092;116;20.00;38968.27
1726155153.142;95;20.00;34989.40
1726155153.193;95;20.00;34989.40
1726155153.243;95;20.00;34989.40
1726155153.292;107;20.00;37293.54
1726155153.343;114;20.00;38590.27
1726155153.393;114;20.00;38590.27
1726155153.442;114;20.00;38590.27
1726155153.493;96;20.00;35160.54
1726155153.542;102;20.00;36294.40
1726155153.592;102;20.00;36294.40
1726155153.643;102;20.00;36294.40
1726155153.692;109;20.00;37609.46
1726155153.742;98;20.00;35601.00
1726155153.793;98;20.00;35601.00
1726155153.842;98;20.00;35601.00
1726155153.892;104;20.00;36665.13
1726155153.943;112;20.00;38142.87
1726155153.992;112;20.00;38142.87
1726155154.043;112;20.00;38142.87
1726155154.093;116;20.00;38890.80
1726155154.143;116;20.00;38890.80
1726155154.193;116;20.00;38890.80
1726155154.243;116;20.00;38890.80
1726155154.293;93;20.00;34750.73
1726155154.343;110;20.00;37846.67
1726155154.392;110;20.00;37846.67
1726155154.443;110;20.00;37846.67
1726155154.492;110;20.00;37846.67
1726155154.543;90;20.00;34162.00
1726155154.592;92;20.00;34433.46
1726155154.643;92;20.00;34433.46
1726155154.693;92;20.00;34433.46
1726155154.743;92;20.00;34433.46
1726155154.793;97;20.00;35450.27
1726155154.843;108;20.00;37365.13
1726155154.893;108;20.00;37365.13
1726155154.943;108;20.00;37365.13
1726155154.994;99;20.00;35779.46
1726155155.044;116;20.00;38946.13
1726155155.093;116;20.00;38946.13
1726155155.143;116;20.00;38946.13
1726155155.194;96;20.00;35222.27
1726155155.244;96;20.00;35222.27
1726155155.294;96;20.00;35222.27
1726155155.344;117;20.00;38985.20
1726155155.394;109;20.00;37603.00
1726155155.445;91;20.00;34332.73
1726155155.494;91;20.00;34332.73
1726155155.544;91;20.00;34332.73
1726155155.594;114;20.00;38536.80
1726155155.644;94;20.00;34791.20
1726155155.694;94;20.00;34791.20
1726155155.744;94;20.00;34791.20
1726155155.794;99;20.00;35702.73
1726155168.592;91;20.00;34265.73
1726155168.641;91;20.00;34368.13
1726155168.692;91;20.00;34368.13
1726155168.741;91;20.00;34368.13
1726155168.791;90;20.00;34161.33
1726155168.841;109;20.00;37679.73
1726155168.891;109;20.00;37679.73
1726155168.941;109;20.00;37679.73
1726155168.992;118;20.00;39210.67
1726155169.042;116;20.00;38907.00
1726155169.091;116;20.00;38907.00
1726155169.141;116;20.00;38907.00
1726155169.193;101;20.00;36067.07
1726155169.242;114;20.00;38491.46
1726155169.293;114;20.00;38491.46
1726155169.343;114;20.00;38491.46
1726155169.393;113;20.00;38389.20
1726155169.444;92;20.00;34533.46
1726155169.493;92;20.00;34533.46
1726155169.544;94;20.00;34850.67
1726155169.594;98;20.00;35511.54
1726155169.644;90;20.00;34081.87
1726155169.695;90;20.00;34081.87
1726155169.745;90;20.00;34081.87
1726155169.795;91;20.00;34390.54
1726155169.845;106;20.00;37016.07
1726155169.895;118;20.00;39295.87
1726155169.945;118;20.00;39295.87
1726155169.996;118;20.00;39295.87
1726155170.045;112;20.00;38191.33
1726155170.096;95;20.00;35134.40
1726155170.145;93;20.00;34749.07
1726155170.196;93;20.00;34749.07
1726155170.246;93;20.00;34749.07
1726155170.295;100;20.00;35956.20
1726155170.346;100;20.00;35932.80
1726155170.396;100;20.00;35932.80
1726155170.446;100;20.00;35932.80
1726155170.496;102;20.00;36373.20
1726155170.546;116;20.00;38795.67
1726155170.596;116;20.00;38795.67
1726155170.645;116;20.00;38795.67
1726155170.696;98;20.00;35641.67
1726155170.746;106;20.00;37020.27
1726155170.796;106;20.00;37020.27
1726155170.845;106;20.00;37020.27
1726155170.896;101;20.00;36078.40
1726155170.946;99;20.00;35695.27
1726155170.996;99;20.00;35695.27
1726155171.046;99;20.00;35695.27
1726155171.096;109;20.00;37654.46
1726155171.146;102;20.00;36242.00
1726155171.196;102;20.00;36242.00
1726155171.246;102;20.00;36242.00
1726155171.296;112;20.00;38190.73
1726155171.346;114;20.00;38468.13
1726155171.396;114;20.00;38468.13
1726155171.446;118;20.00;39217.54
1726155171.496;105;20.00;36787.00
1726155171.546;104;20.00;36653.40
1726155171.596;104;20.00;36653.40
1726155171.646;104;20.00;36653.40
1726155171.696;92;20.00;34559.73
1726155171.746;104;20.00;36672.20
1726155171.796;104;20.00;36672.20
1726155171.846;104;20.00;36672.20
1726155171.896;109;20.00;37644.73
1726155171.946;107;20.00;37183.93
1726155171.996;107;20.00;37183.93
1726155172.046;107;20.00;37183.93
1726155172.096;107;20.00;37183.93
1726155172.146;98;20.00;35651.27
1726155172.197;119;20.00;39350.60
1726155172.246;114;20.00;38560.73
1726155172.296;114;20.00;38560.73
1726155172.348;114;20.00;38560.73
1726155172.398;112;20.00;38065.80
1726155172.448;91;20.00;34342.13
1726155172.498;91;20.00;34342.13
1726155172.548;91;20.00;34342.13
1726155172.598;119;20.00;39339.00
1726155172.648;107;20.00;37160.80
1726155172.698;107;20.00;37160.80
1726155172.748;107;20.00;37160.80
1726155172.798;97;20.00;35377.87
1726155172.849;106;20.00;37065.93
1726155172.898;106;20.00;37065.93
1726155172.949;106;20.00;37065.93
1726155172.999;118;20.00;39295.40
1726155173.049;106;20.00;36984.87
1726155173.099;106;20.00;36984.87
1726155173.149;106;20.00;36984.87
1726155173.200;94;20.00;34951.73
1726155173.249;116;20.00;38878.46
1726155173.300;116;20.00;38878.46
1726155173.349;116;20.00;38878.46
1726155173.400;104;20.00;36745.80
1726155284.720;97;10.00;35489.33
1726155284.770;92;10.00;34550.80
1726155284.820;92;10.00;34550.80
1726155284.871;92;10.00;34550.80
1726155284.921;103;10.00;36552.13
1726155284.971;103;10.00;36552.13
1726155285.021;103;10.00;36552.13
1726155285.071;103;10.00;36596.00
1726155285.122;96;10.00;35175.87
1726155285.172;96;10.00;35197.07
1726155285.222;96;10.00;35197.07
1726155285.272;101;10.00;36181.67
1726155285.322;98;10.00;35515.46
1726155285.373;98;10.00;35515.46
1726155285.422;98;10.00;35515.46
1726155285.472;94;10.00;34938.67
1726155285.522;97;10.00;35411.46
1726155285.574;106;10.00;37042.93
1726155285.623;106;10.00;37042.93
1726155285.673;106;10.00;37042.93
1726155285.723;117;10.00;39148.33
1726155285.774;112;10.00;38231.54
1726155285.823;112;10.00;38231.54
1726155285.873;112;10.00;38231.54
1726155285.923;108;10.00;37415.27
1726155285.973;114;10.00;38510.07
1726155286.023;114;10.00;38510.07
1726155286.073;114;10.00;38510.07
1726155286.123;114;10.00;38510.07
1726155286.173;93;10.00;34772.40
1726155286.225;109;10.00;37675.00
1726155286.274;109;10.00;37675.00
1726155286.324;109;10.00;37675.00
1726155286.375;96;10.00;35166.00
1726155286.425;114;10.00;38578.87
1726155286.474;114;10.00;38578.87
1726155286.524;114;10.00;38578.87
1726155286.574;102;10.00;36338.33
1726155286.624;114;10.00;38484.93
1726155286.674;114;10.00;38484.93
1726155286.725;114;10.00;38484.93
1726155286.775;109;10.00;37685.87
1726155286.824;89;10.00;33994.67
1726155286.874;97;10.00;35362.60
1726155286.925;97;10.00;35362.60
1726155286.976;97;10.00;35362.60
1726155287.025;108;10.00;37346.73
1726155287.076;96;10.00;35189.60
1726155287.126;96;10.00;35189.60
1726155287.176;96;10.00;35189.60
1726155287.225;98;10.00;35665.87
1726155287.276;116;10.00;38903.33
1726155287.325;116;10.00;38903.33
1726155287.377;116;10.00;38903.33
1726155287.426;110;10.00;37825.00
1726155287.477;112;10.00;38096.93
1726155287.527;112;10.00;38096.93
1726155287.577;112;10.00;38096.93
1726155287.626;112;10.00;38067.40
1726155287.677;114;10.00;38474.54
1726155287.727;114;10.00;38474.54
1726155287.777;114;10.00;38474.54
1726155287.827;95;10.00;34991.07
1726155287.877;95;10.00;34991.07
1726155287.928;95;10.00;34991.07
1726155287.978;107;10.00;37208.33
1726155288.027;111;10.00;38033.60
1726155288.077;91;10.00;34269.33
1726155288.128;91;10.00;34269.33
1726155288.180;91;10.00;34269.33
1726155288.229;110;10.00;37794.67
1726155288.280;110;10.00;37794.67
1726155288.330;110;10.00;37794.67
1726155288.380;107;10.00;37151.60
1726155288.430;111;10.00;37998.46
1726155288.480;95;10.00;35032.00
1726155288.531;95;10.00;35032.00
1726155288.581;95;10.00;35032.00
1726155288.631;103;10.00;36541.07
1726155288.681;106;10.00;37090.54
1726155288.731;106;10.00;37090.54
1726155288.781;106;10.00;37090.54
1726155288.831;94;10.00;34881.27
1726155288.881;113;10.00;38361.80
1726155288.933;113;10.00;38361.80
1726155288.984;113;10.00;38361.80
1726155289.034;105;10.00;36896.87
1726155289.084;105;10.00;36896.87
1726155289.133;105;10.00;36896.87
1726155289.184;114;10.00;38511.40
1726155289.233;109;10.00;37637.07
1726155289.284;109;10.00;37637.07
1726155289.334;109;10.00;37637.07
1726155289.384;110;10.00;37829.40
1726155289.434;94;10.00;34957.07
1726155289.484;95;10.00;35025.46
1726155289.534;95;10.00;35025.46
1726155289.585;95;10.00;35025.46
1726155289.634;113;10.00;38361.80
1726155289.685;106;10.00;37138.80
1726155289.734;106;10.00;37138.80
1726155289.785;105;10.00;36813.46
1726155302.676;96;10.00;35173.60
1726155302.726;93;10.00;34748.67
1726155302.777;93;10.00;34748.67
1726155302.828;93;10.00;34748.67
1726155302.878;95;10.00;35098.00
1726155302.928;108;10.00;37439.13
1726155302.978;108;10.00;37439.13
1726155303.028;108;10.00;37439.13
1726155303.078;107;10.00;37282.13
1726155303.127;110;10.00;37816.93
1726155303.178;104;10.00;36693.20
1726155303.228;104;10.00;36693.20
1726155303.278;105;10.00;36839.73
1726155303.328;108;10.00;37506.13
1726155303.378;99;10.00;35739.87
1726155303.428;99;10.00;35739.87
1726155303.478;99;10.00;35739.87
1726155303.528;116;10.00;38967.87
1726155303.578;100;10.00;35902.07
1726155303.629;100;10.00;35902.07
1726155303.679;100;10.00;35902.07
1726155303.729;113;10.00;38399.60
1726155303.778;112;10.00;38096.67
1726155303.828;112;10.00;38069.20
1726155303.879;112;10.00;38069.20
1726155303.928;112;10.00;38069.20
1726155303.978;96;10.00;35247.07
1726155304.029;111;10.00;37995.60
1726155304.080;108;10.00;37384.60
1726155304.130;108;10.00;37384.60
1726155304.180;107;10.00;37237.40
1726155304.229;103;10.00;36502.20
1726155304.279;92;10.00;34414.27
1726155304.329;92;10.00;34414.27
1726155304.379;92;10.00;34414.27
1726155304.430;96;10.00;35190.67
1726155304.479;107;10.00;37216.00
1726155304.529;107;10.00;37216.00
1726155304.581;115;10.00;38730.27
1726155304.631;107;10.00;37323.33
1726155304.681;107;10.00;37323.33
1726155304.732;107;10.00;37323.33
1726155304.781;90;10.00;34052.13
1726155304.833;102;10.00;36242.00
1726155304.882;92;10.00;34498.00
1726155304.932;92;10.00;34498.00
1726155304.983;92;10.00;34498.00
1726155305.032;106;10.00;37019.87
1726155305.082;114;10.00;38441.40
1726155305.132;114;10.00;38441.40
1726155305.183;114;10.00;38441.40
1726155305.232;89;10.00;33878.54
1726155305.282;98;10.00;35645.33
1726155305.332;98;10.00;35645.33
1726155305.384;98;10.00;35645.33
1726155305.433;98;10.00;35644.07
1726155305.483;89;10.00;33995.73
1726155305.533;89;10.00;33995.73
1726155305.583;89;10.00;33995.73
1726155305.635;113;10.00;38388.87
1726155305.684;108;10.00;37494.07
1726155305.735;108;10.00;37494.07
1726155305.784;108;10.00;37494.07
1726155305.835;108;10.00;37502.07
1726155305.884;95;10.00;35118.60
1726155305.935;95;10.00;35118.60
1726155305.986;95;10.00;35118.60
1726155306.036;92;10.00;34524.60
1726155306.085;107;10.00;37242.33
1726155306.136;107;10.00;37242.33
1726155306.185;107;10.00;37242.33
1726155306.237;94;10.00;34862.07
1726155306.286;116;10.00;38867.40
1726155306.338;116;10.00;38867.40
1726155306.388;116;10.00;38867.40
1726155306.437;99;10.00;35820.87
1726155306.488;117;10.00;39054.87
1726155306.538;117;10.00;39054.87
1726155306.588;115;10.00;38680.93
1726155306.639;91;10.00;34243.46
1726155306.688;99;10.00;35721.20
1726155306.738;99;10.00;35721.20
1726155306.788;99;10.00;35801.07
1726155306.839;115;10.00;38675.20
1726155306.889;96;10.00;35176.67
1726155306.939;96;10.00;35176.67
1726155306.990;104;10.00;36645.13
1726155307.040;113;10.00;38344.20
1726155307.089;103;10.00;36596.46
1726155307.140;103;10.00;36596.46
1726155307.190;113;10.00;38408.13
1726155307.240;93;10.00;34640.80
1726155307.290;93;10.00;34771.54
1726155307.340;93;10.00;34771.54
1726155307.390;93;10.00;34771.54
1726155307.440;99;10.00;35778.93
1726155307.490;107;10.00;37303.46
1726155307.540;107;10.00;37303.46
1726155307.589;107;10.00;37303.46
1726155307.640;117;10.00;39108.67
1726155307.690;91;10.00;34344.00
1726155307.741;91;10.00;34344.00
1726155307.791;91;10.00;34344.00
1726155307.841;106;10.00;37048.13
1726155307.891;98;10.00;35591.46
1726155320.753;90;10.00;34062.27
1726155320.804;97;10.00;35490.40
1726155320.854;97;10.00;35490.40
1726155320.904;97;10.00;35490.40
1726155320.953;97;10.00;35490.40
1726155321.003;114;10.00;38592.40
1726155321.053;104;10.00;36631.73
1726155321.104;104;10.00;36631.73
1726155321.154;104;10.00;36631.73
1726155321.203;93;10.00;34743.60
1726155321.255;108;10.00;37447.33
1726155321.305;110;10.00;37781.67
1726155321.354;110;10.00;37781.67
1726155321.405;113;10.00;38261.80
1726155321.455;110;10.00;37829.13
1726155321.505;89;10.00;33878.80
1726155321.554;89;10.00;33878.80
1726155321.605;89;10.00;33878.80
1726155321.655;110;10.00;37732.67
1726155321.705;115;10.00;38673.93
1726155321.754;115;10.00;38673.93
1726155321.804;115;10.00;38673.93
1726155321.855;107;10.00;37167.73
1726155321.905;116;10.00;38854.73
1726155321.956;116;10.00;38854.73
1726155322.005;116;10.00;38854.73
1726155322.106;103;10.00;36554.60
1726155322.155;103;10.00;36554.60
1726155322.205;103;10.00;36554.60
1726155322.255;102;10.00;36387.60
1726155322.305;93;10.00;34686.00
1726155322.356;93;10.00;34686.00
1726155322.405;93;10.00;34686.00
1726155322.456;96;10.00;35173.60
1726155322.506;90;10.00;34091.54
1726155322.556;90;10.00;34091.54
1726155322.606;91;10.00;34339.13
1726155322.657;97;10.00;35377.87
1726155322.706;90;10.00;34166.67
1726155322.756;90;10.00;34166.67
1726155322.807;91;10.00;34330.13
1726155322.857;94;10.00;34926.54
1726155322.907;92;10.00;34592.80
1726155322.957;92;10.00;34592.80
1726155323.008;92;10.00;34592.80
1726155323.059;113;10.00;38387.80
1726155323.109;110;10.00;37719.67
1726155323.160;110;10.00;37719.67
1726155323.210;110;10.00;37719.67
1726155323.260;94;10.00;34870.00
1726155323.309;107;10.00;37296.67
1726155323.359;107;10.00;37296.67
1726155323.411;107;10.00;37296.67
1726155323.461;97;10.00;35431.07
1726155323.511;89;10.00;34020.80
1726155323.562;89;10.00;34020.80
1726155323.612;89;10.00;34020.80
1726155323.662;101;10.00;36076.93
1726155323.711;102;10.00;36331.73
1726155323.763;102;10.00;36331.73
1726155323.812;102;10.00;36331.73
1726155323.863;112;10.00;38080.40
1726155323.912;115;10.00;38744.20
1726155323.962;115;10.00;38744.20
1726155324.012;115;10.00;38744.20
1726155324.066;111;10.00;37949.00
1726155324.114;106;10.00;36967.13
1726155324.163;106;10.00;36967.13
1726155324.213;106;10.00;36967.13
1726155324.264;93;10.00;34662.27
1726155324.314;111;10.00;38013.73
1726155324.364;111;10.00;38013.73
1726155324.414;111;10.00;38013.73
1726155324.465;96;10.00;35148.54
1726155324.514;90;10.00;34093.87
1726155324.564;90;10.00;34093.87
1726155324.614;90;10.00;34093.87
1726155324.664;109;10.00;37551.46
1726155324.715;94;10.00;34846.00
1726155324.765;94;10.00;34846.00
1726155324.816;94;10.00;34846.00
1726155324.866;103;10.00;36435.54
1726155324.917;104;10.00;36708.46
1726155324.966;104;10.00;36708.46
1726155325.016;104;10.00;36708.46
1726155325.067;112;10.00;38140.27
1726155325.117;112;10.00;38078.73
1726155325.167;112;10.00;38078.73
1726155325.217;112;10.00;38078.73
1726155325.268;114;10.00;38446.93
1726155325.318;97;10.00;35399.40
1726155325.368;97;10.00;35399.40
1726155325.417;97;10.00;35399.40
1726155325.468;116;10.00;38878.73
1726155325.517;89;10.00;33867.46
1726155325.567;89;10.00;33867.46
1726155325.618;101;10.00;36058.73
1726155325.669;112;10.00;38062.13
1726155325.719;113;10.00;38362.73
1726155325.768;113;10.00;38362.73
1726155325.819;112;10.00;38132.54
1726155325.869;116;10.00;38796.60
1726155325.918;113;10.00;38396.80
1726155325.969;113;10.00;38396.80
1726155326.019;107;10.00;37189.80
1726155326.070;98;10.00;35659.00
1726155473.604;91;40.00;34374.27
1726155473.654;95;40.00;35079.07
1726155473.705;95;40.00;35079.07
1726155473.754;95;40.00;35079.07
1726155473.805;94;40.00;34918.13
1726155473.856;118;40.00;39291.00
1726155473.906;118;40.00;39291.00
1726155473.956;118;40.00;39291.00
1726155474.006;118;40.00;39291.00
1726155474.055;111;40.00;38052.33
1726155474.106;111;40.00;38052.33
1726155474.157;111;40.00;38052.33
1726155474.207;109;40.00;37564.67
1726155474.257;115;40.00;38666.20
1726155474.307;115;40.00;38666.20
1726155474.357;115;40.00;38666.20
1726155474.407;116;40.00;38875.40
1726155474.457;116;40.00;38864.46
1726155474.507;116;40.00;38864.46
1726155474.557;116;40.00;38864.46
1726155474.607;116;40.00;38864.46
1726155474.807;90;40.00;34074.00
1726155474.858;94;40.00;34867.20
1726155474.908;94;40.00;34867.20
1726155474.959;94;40.00;34867.20
1726155475.009;94;40.00;34867.20
1726155475.108;93;40.00;34738.13
1726155475.159;93;40.00;34738.13
1726155475.209;93;40.00;34738.13
1726155475.260;103;40.00;36440.80
1726155475.310;103;40.00;36440.80
1726155475.361;103;40.00;36440.80
1726155475.411;103;40.00;36584.87
1726155475.461;116;40.00;38966.27
1726155475.511;116;40.00;38966.27
1726155475.561;116;40.00;38966.27
1726155475.611;104;40.00;36718.54
1726155475.662;90;40.00;34047.87
1726155475.712;90;40.00;34047.87
1726155475.761;90;40.00;34047.87
1726155475.811;91;40.00;34303.87
1726155475.861;112;40.00;38141.80
1726155475.912;112;40.00;38141.80
1726155475.961;112;40.00;38141.80
1726155476.012;113;40.00;38334.33
1726155476.062;96;40.00;35165.73
1726155476.111;96;40.00;35165.73
1726155476.162;96;40.00;35165.73
1726155476.214;118;40.00;39241.13
1726155476.413;89;40.00;33868.80
1726155476.464;97;40.00;35349.00
1726155476.514;97;40.00;35349.00
1726155476.564;97;40.00;35349.00
1726155476.614;97;40.00;35349.00
1726155476.665;112;40.00;38112.27
1726155476.715;112;40.00;38112.27
1726155476.766;112;40.00;38112.27
1726155476.816;111;40.00;38014.07
1726155476.865;94;40.00;34947.87
1726155476.915;94;40.00;34947.87
1726155476.967;94;40.00;34947.87
1726155477.017;95;40.00;35025.33
1726155477.067;115;40.00;38772.80
1726155477.116;115;40.00;38772.80
1726155477.166;115;40.00;38772.80
1726155477.216;117;40.00;39047.87
1726155477.267;101;40.00;36231.27
1726155477.316;101;40.00;36231.27
1726155477.367;101;40.00;36231.27
1726155477.417;94;40.00;34803.87
1726155477.466;119;40.00;39338.54
1726155477.517;119;40.00;39338.54
1726155477.568;119;40.00;39338.54
1726155477.618;111;40.00;37984.13
1726155477.669;108;40.00;37410.87
1726155477.719;91;40.00;34246.67
1726155477.769;91;40.00;34246.67
1726155477.819;91;40.00;34246.67
1726155477.870;93;40.00;34651.33
1726155477.919;93;40.00;34651.33
1726155477.969;93;40.00;34651.33
1726155478.019;93;40.00;34651.33
1726155478.070;112;40.00;38171.20
1726155478.119;106;40.00;37019.33
1726155478.171;96;40.00;35142.27
1726155478.221;96;40.00;35142.27
1726155478.271;89;40.00;33920.27
1726155478.321;89;40.00;33924.87
1726155478.571;89;40.00;33936.80
1726155478.621;89;40.00;33936.80
1726155478.671;89;40.00;33936.80
1726155478.721;93;40.00;34671.80
1726155478.771;101;40.00;36108.46
1726155478.822;101;40.00;36108.46
1726155478.872;101;40.00;36108.46
1726155478.921;106;40.00;37092.73
1726155491.860;90;40.00;34117.00
1726155491.911;92;40.00;34488.20
1726155491.961;92;40.00;34488.20
1726155492.011;92;40.00;34488.20
1726155492.061;92;40.00;34541.07
1726155492.111;108;40.00;37394.60
1726155492.161;108;40.00;37394.60
1726155492.212;108;40.00;37472.46
1726155492.261;88;40.00;33833.46
1726155492.312;88;40.00;33833.46
1726155492.362;88;40.00;33833.46
1726155492.412;119;40.00;39498.00
1726155492.462;109;40.00;37608.13
1726155492.512;109;40.00;37608.13
1726155492.562;109;40.00;37608.13
1726155492.612;110;40.00;37822.73
1726155492.662;110;40.00;37822.73
1726155492.712;110;40.00;37822.73
1726155492.762;105;40.00;36874.67
1726155492.812;107;40.00;37300.27
1726155492.862;89;40.00;33942.27
1726155492.927;89;40.00;33942.27
1726155492.962;89;40.00;33942.27
1726155493.012;94;40.00;34872.54
1726155493.062;93;40.00;34614.40
1726155493.112;93;40.00;34614.40
1726155493.162;93;40.00;34614.40
1726155493.212;93;40.00;34614.40
1726155493.262;97;40.00;35371.87
1726155493.312;119;40.00;39494.27
1726155493.362;119;40.00;39494.27
1726155493.412;119;40.00;39494.27
1726155493.462;93;40.00;34711.80
1726155493.512;93;40.00;34699.60
1726155493.562;93;40.00;34699.60
1726155493.612;93;40.00;34699.60
1726155493.662;93;40.00;34728.54
1726155493.712;97;40.00;35499.27
1726155493.762;102;40.00;36338.80
1726155493.812;102;40.00;36338.80
1726155493.862;102;40.00;36338.80
1726155493.913;91;40.00;34296.54
1726155493.962;95;40.00;34973.87
1726155494.012;95;40.00;34973.87
1726155494.062;95;40.00;34973.87
1726155494.112;113;40.00;38340.20
1726155494.164;99;40.00;35710.13
1726155494.213;90;40.00;34127.87
1726155494.263;90;40.00;34127.87
1726155494.314;90;40.00;34127.87
1726155494.363;102;40.00;36418.13
1726155494.415;105;40.00;36956.20
1726155494.464;105;40.00;36956.20
1726155494.516;105;40.00;36956.20
1726155494.565;104;40.00;36748.00
1726155494.765;101;40.00;36152.40
1726155494.815;101;40.00;36152.40
1726155494.865;101;40.00;36152.40
1726155494.916;103;40.00;36516.80
1726155494.966;117;40.00;39012.67
1726155495.017;117;40.00;39012.67
1726155495.066;117;40.00;39012.67
1726155495.117;96;40.00;35229.20
1726155495.170;94;40.00;34842.67
1726155495.217;94;40.00;34842.67
1726155495.267;94;40.00;34842.67
1726155495.316;92;40.00;34492.54
1726155495.367;113;40.00;38285.93
1726155495.417;105;40.00;36806.27
1726155495.467;105;40.00;36806.27
1726155495.517;105;40.00;36806.27
1726155495.567;101;40.00;36111.00
1726155495.618;98;40.00;35517.07
1726155495.668;91;40.00;34271.33
1726155495.717;91;40.00;34271.33
1726155495.767;91;40.00;34271.33
1726155495.817;90;40.00;34199.07
1726155495.867;102;40.00;36249.13
1726155495.918;102;40.00;36249.13
1726155495.967;102;40.00;36249.13
1726155496.018;102;40.00;36249.13
1726155496.068;104;40.00;36781.33
1726155496.118;117;40.00;39109.07
1726155496.168;117;40.00;39109.07
1726155496.218;117;40.00;39109.07
1726155496.268;92;40.00;34464.13
1726155496.320;102;40.00;36288.54
1726155496.369;103;40.00;36555.20
1726155496.420;103;40.00;36555.20
1726155496.470;103;40.00;36555.20
1726155496.520;89;40.00;33920.67
1726155496.569;106;40.00;37044.93
1726155496.620;100;40.00;35938.54
1726155496.671;100;40.00;35938.54
1726155496.721;105;40.00;36863.67
1726155496.771;110;40.00;37795.67
1726155496.821;110;40.00;37795.67
1726155496.871;110;40.00;37795.67
1726155496.921;110;40.00;37795.67
1726155496.972;88;40.00;33787.67
1726155497.022;91;40.00;34319.27
1726155497.073;91;40.00;34319.27
1726155497.122;91;40.00;34319.27
1726155497.173;114;40.00;38436.80
1726155497.223;96;40.00;35246.93
1726155497.273;96;40.00;35246.93
1726155497.322;96;40.00;35246.93
1726155510.304;98;40.00;35533.46
1726155510.354;98;40.00;35533.46
1726155510.404;98;40.00;35533.46
1726155510.456;97;40.00;35338.40
1726155510.506;118;40.00;39164.07
1726155510.556;118;40.00;39164.07
1726155510.606;118;40.00;39164.07
1726155510.657;109;40.00;37667.00
1726155510.707;90;40.00;34127.07
1726155510.757;90;40.00;34127.07
1726155510.808;90;40.00;34127.07
1726155510.857;107;40.00;37316.13
1726155510.907;117;40.00;38976.54
1726155510.958;117;40.00;38976.54
1726155511.008;117;40.00;38976.54
1726155511.059;115;40.00;38675.93
1726155511.108;108;40.00;37363.07
1726155511.160;108;40.00;37363.07
1726155511.209;108;40.00;37363.07
1726155511.259;109;40.00;37537.13
1726155511.311;92;40.00;34589.46
1726155511.361;92;40.00;34589.46
1726155511.411;92;40.00;34589.46
1726155511.461;95;40.00;35116.00
1726155511.511;107;40.00;37279.00
1726155511.561;107;40.00;37279.00
1726155511.611;107;40.00;37279.00
1726155511.661;108;40.00;37510.20
1726155511.711;93;40.00;34633.73
1726155511.761;93;40.00;34633.73
1726155511.811;93;40.00;34633.73
1726155511.862;94;40.00;34803.73
1726155511.912;109;40.00;37557.67
1726155511.962;109;40.00;37557.67
1726155512.012;109;40.00;37557.67
1726155512.062;110;40.00;37816.60
1726155512.112;116;40.00;38865.46
1726155512.162;116;40.00;38865.46
1726155512.212;116;40.00;38865.46
1726155512.263;115;40.00;38682.93
1726155512.313;117;40.00;39149.80
1726155512.363;117;40.00;39149.80
1726155512.421;117;40.00;39149.80
1726155512.463;111;40.00;37962.07
1726155512.513;98;40.00;35660.07
1726155512.564;115;40.00;38658.20
1726155512.614;115;40.00;38658.20
1726155512.664;115;40.00;38658.20
1726155512.713;115;40.00;38717.07
1726155512.764;92;40.00;34580.13
1726155512.814;91;40.00;34315.33
1726155512.864;91;40.00;34315.33
1726155512.913;91;40.00;34315.33
1726155512.964;108;40.00;37511.33
1726155513.014;94;40.00;34794.00
1726155513.064;94;40.00;34794.00
1726155513.114;94;40.00;34794.00
1726155513.164;116;40.00;38815.67
1726155513.213;117;40.00;39019.40
1726155513.264;117;40.00;39019.40
1726155513.315;117;40.00;39019.40
1726155513.365;117;40.00;39019.40
1726155513.415;104;40.00;36725.40
1726155513.466;90;40.00;34063.60
1726155513.515;90;40.00;34063.60
1726155513.566;90;40.00;34063.60
1726155513.616;114;40.00;38542.33
1726155513.666;112;40.00;38137.00
1726155513.715;112;40.00;38137.00
1726155513.766;112;40.00;38137.00
1726155513.815;112;40.00;38215.13
1726155513.867;114;40.00;38566.87
1726155513.916;114;40.00;38566.87
1726155513.966;114;40.00;38566.87
1726155514.016;117;40.00;39015.73
1726155514.067;90;40.00;34055.20
1726155514.117;91;40.00;34324.27
1726155514.167;91;40.00;34324.27
1726155514.217;90;40.00;34063.60
1726155514.267;107;40.00;37316.80
1726155514.317;107;40.00;37316.80
1726155514.368;107;40.00;37316.80
1726155514.418;106;40.00;36995.13
1726155514.469;116;40.00;38866.87
1726155514.518;114;40.00;38440.93
1726155514.568;114;40.00;38440.93
1726155514.619;114;40.00;38440.93
1726155514.669;116;40.00;38879.46
1726155514.719;116;40.00;38889.93
1726155514.769;117;40.00;39130.40
1726155514.821;117;40.00;39130.40
1726155514.871;117;40.00;39130.40
1726155514.971;92;40.00;34539.07
1726155515.021;92;40.00;34539.07
1726155515.072;92;40.00;34539.07
1726155515.121;91;40.00;34260.00
1726155515.171;107;40.00;37249.60
1726155515.221;97;40.00;35384.80
1726155515.271;97;40.00;35384.80
1726155515.321;97;40.00;35384.80
1726155515.372;106;40.00;37077.54
1726155515.421;95;40.00;35123.33
1726155515.472;95;40.00;35123.33
1726155515.522;95;40.00;35123.33
1726155515.572;110;40.00;37725.07
1726155847.126;500;13.78;34245.33
1726155847.176;500;14.37;34984.00
1726155847.226;500;14.37;34984.00
1726155847.276;500;14.37;34984.00
1726155847.325;500;14.95;35701.20
1726155847.376;500;17.64;39064.80
1726155847.426;500;17.64;39064.80
1726155847.476;500;17.64;39064.80
1726155847.526;500;17.19;38509.54
1726155847.577;500;17.55;38953.40
1726155847.626;500;17.55;38953.40
1726155847.677;500;17.55;38953.40
1726155847.727;500;17.09;38377.33
1726155847.777;500;14.75;35462.33
1726155847.827;500;14.75;35462.33
1726155847.876;500;14.75;35462.33
1726155847.927;500;17.15;38455.40
1726155847.977;500;17.15;38455.40
1726155848.026;500;17.15;38455.40
1726155848.077;500;16.18;37246.67
1726155848.127;500;17.16;38468.73
1726155848.177;500;17.16;38468.73
1726155848.227;500;17.16;38468.73
1726155848.277;500;15.35;36205.33
1726155848.328;500;16.14;37189.80
1726155848.378;500;16.14;37189.80
1726155848.428;500;16.14;37189.80
1726155848.478;500;16.74;37946.46
1726155848.527;500;17.70;39152.07
1726155848.578;500;17.15;38462.07
1726155848.628;500;17.15;38462.07
1726155848.679;500;17.15;38462.07
1726155848.728;500;17.34;38693.46
1726155848.778;500;17.42;38796.46
1726155848.828;500;17.42;38796.46
1726155848.878;500;17.42;38796.46
1726155848.928;500;16.26;37343.80
1726155848.979;500;17.10;38395.80
1726155849.028;500;17.10;38395.80
1726155849.078;500;17.10;38395.80
1726155849.128;500;17.10;38399.40
1726155849.179;500;17.20;38520.33
1726155849.229;500;17.20;38520.33
1726155849.278;500;17.20;38520.33
1726155849.329;500;17.33;38681.27
1726155849.379;500;14.65;35336.20
1726155849.428;500;14.65;35336.20
1726155849.479;500;14.65;35336.20
1726155849.530;500;17.68;39126.40
1726155849.580;500;16.91;38156.80
1726155849.630;500;16.91;38156.80
1726155849.680;500;16.91;38156.80
1726155849.730;500;17.09;38384.54
1726155849.780;500;17.48;38876.54
1726155849.830;500;17.48;38876.54
1726155849.880;500;17.48;38876.54
1726155849.931;500;15.86;36847.80
1726155849.980;500;16.46;37591.87
1726155850.031;500;16.46;37591.87
1726155850.081;500;16.46;37591.87
1726155850.130;500;16.35;37459.27
1726155850.181;500;17.38;38750.00
1726155850.231;500;17.38;38750.00
1726155850.281;500;17.38;38750.00
1726155850.331;500;15.47;36362.40
1726155850.381;500;14.96;35724.60
1726155850.431;500;14.96;35724.60
1726155850.481;500;14.96;35724.60
1726155850.531;500;15.71;36654.87
1726155850.580;500;16.71;37911.27
1726155850.631;500;16.71;37911.27
1726155850.681;500;16.71;37911.27
1726155850.731;500;16.16;37222.33
1726155850.781;500;17.34;38698.93
1726155850.831;500;17.34;38698.93
1726155850.881;500;17.34;38698.93
1726155850.931;500;17.53;38932.33
1726155850.981;500;15.21;36026.00
1726155851.031;500;15.21;36026.00
1726155851.081;500;15.21;36026.00
1726155851.131;500;17.28;38623.46
1726155851.181;500;17.30;38649.40
1726155851.231;500;17.30;38649.40
1726155851.281;500;16.71;37910.33
1726155851.331;500;16.35;37454.07
1726155851.381;500;15.74;36690.00
1726155851.432;500;15.74;36690.00
1726155851.482;500;15.74;36690.00
1726155851.532;500;17.21;38531.07
1726155851.582;500;14.24;34818.73
1726155851.632;500;14.24;34818.73
1726155851.682;500;14.24;34818.73
1726155851.731;500;16.02;37049.87
1726155851.782;500;17.52;38914.60
1726155851.832;500;17.52;38914.60
1726155851.882;500;17.52;38914.60
1726155851.931;500;17.16;38472.13
1726155851.982;500;17.16;38472.13
1726155852.031;500;17.16;38472.13
1726155852.082;500;15.12;35918.87
1726155852.135;500;17.07;38360.73
1726155852.182;500;17.66;39095.13
1726155852.232;500;17.66;39095.13
1726155852.282;500;17.66;39095.13
1726155852.332;500;17.14;38440.54
1726155852.382;500;17.14;38440.54
1726155852.432;500;17.14;38440.54
1726155852.482;500;17.50;38889.73
1726155852.532;500;17.34;38700.20
1726155865.266;500;13.81;34281.07
1726155865.315;500;15.07;35852.00
1726155865.365;500;15.07;35852.00
1726155865.416;500;15.07;35852.00
1726155865.466;500;14.13;34681.00
1726155865.516;500;16.37;37487.20
1726155865.565;500;15.43;36305.54
1726155865.617;500;15.43;36305.54
1726155865.666;500;15.43;36305.54
1726155865.716;500;17.17;38487.13
1726155865.766;500;17.25;38588.20
1726155865.817;500;17.25;38588.20
1726155865.866;500;15.15;35958.60
1726155865.917;500;16.66;37849.67
1726155865.966;500;16.66;37849.67
1726155866.016;500;16.66;37849.67
1726155866.067;500;17.23;38557.67
1726155866.118;500;15.63;36562.33
1726155866.168;500;14.79;35508.20
1726155866.218;500;14.79;35508.20
1726155866.268;500;14.79;35508.20
1726155866.319;500;14.79;35508.20
1726155866.368;500;17.35;38711.07
1726155866.419;500;17.34;38694.27
1726155866.469;500;17.34;38694.27
1726155866.518;500;17.34;38694.27
1726155866.568;500;15.47;36356.54
1726155866.619;500;15.36;36224.13
1726155866.669;500;15.36;36224.13
1726155866.719;500;15.36;36224.13
1726155866.769;500;17.80;39267.40
1726155866.819;500;17.80;39267.40
1726155866.869;500;17.80;39267.40
1726155866.919;500;17.34;38700.67
1726155866.970;500;16.27;37353.40
1726155867.021;500;16.27;37353.40
1726155867.070;500;16.27;37353.40
1726155867.121;500;16.27;37353.40
1726155867.170;500;16.69;37885.54
1726155867.221;500;16.69;37885.54
1726155867.271;500;16.69;37885.54
1726155867.320;500;15.23;36057.00
1726155867.370;500;17.31;38654.27
1726155867.421;500;17.31;38654.27
1726155867.471;500;17.31;38654.27
1726155867.521;500;17.11;38414.13
1726155867.571;500;14.52;35165.07
1726155867.621;500;14.52;35165.07
1726155867.671;500;14.52;35165.07
1726155867.720;500;14.88;35616.67
1726155867.770;500;15.88;36866.07
1726155867.821;500;15.88;36866.07
1726155867.871;500;15.88;36866.07
1726155867.921;500;17.28;38618.73
1726155867.971;500;15.67;36611.93
1726155868.022;500;15.67;36611.93
1726155868.071;500;15.67;36611.93
1726155868.121;500;15.02;35788.73
1726155868.172;500;15.13;35936.87
1726155868.222;500;15.13;35936.87
1726155868.272;500;15.13;35936.87
1726155868.322;500;14.36;34972.13
1726155868.373;500;15.61;36536.00
1726155868.423;500;15.61;36536.00
1726155868.473;500;15.61;36536.00
1726155868.523;500;14.81;35530.00
1726155868.573;500;17.12;38417.54
1726155868.622;500;17.12;38417.54
1726155868.673;500;17.12;38417.54
1726155868.724;500;17.12;38417.54
1726155868.773;500;15.44;36316.73
1726155868.824;500;15.44;36316.73
1726155868.875;500;15.44;36316.73
1726155868.924;500;16.56;37723.87
1726155868.975;500;17.18;38501.13
1726155869.025;500;15.76;36713.60
1726155869.075;500;15.76;36713.60
1726155869.125;500;15.76;36713.60
1726155869.175;500;16.02;37047.40
1726155869.225;500;17.37;38733.54
1726155869.275;500;17.35;38713.27
1726155869.326;500;17.35;38713.27
1726155869.376;500;17.35;38713.27
1726155869.427;500;17.36;38719.40
1726155869.476;500;17.64;39070.13
1726155869.526;500;17.13;38436.13
1726155869.577;500;17.13;38436.13
1726155869.627;500;17.13;38436.13
1726155869.677;500;14.18;34743.60
1726155869.728;500;14.18;34743.60
1726155869.777;500;14.18;34743.60
1726155869.828;500;17.39;38763.54
1726155869.878;500;16.11;37158.73
1726155869.928;500;14.90;35649.87
1726155869.979;500;14.90;35649.87
1726155870.028;500;14.90;35649.87
1726155870.078;500;14.84;35574.40
1726155870.128;500;17.25;38583.80
1726155870.178;500;17.25;38583.80
1726155870.228;500;17.25;38583.80
1726155870.278;500;17.95;39461.73
1726155870.328;500;17.95;39461.73
1726155870.378;500;17.95;39461.73
1726155870.429;500;14.54;35193.67
1726155870.479;500;14.78;35497.87
1726155870.529;500;14.78;35497.87
1726155870.578;500;14.78;35497.87
1726155870.629;500;14.43;35062.40
1726155883.417;500;13.74;34198.27
1726155883.467;500;13.74;34198.27
1726155883.517;500;13.74;34198.27
1726155883.567;500;15.60;36513.46
1726155883.617;500;15.60;36513.46
1726155883.667;500;15.60;36513.46
1726155883.720;500;17.57;38981.73
1726155883.770;500;14.78;35489.46
1726155883.821;500;16.46;37589.93
1726155883.871;500;16.46;37589.93
1726155883.921;500;16.46;37589.93
1726155883.972;500;17.33;38687.80
1726155884.021;500;16.19;37253.87
1726155884.071;500;16.19;37253.87
1726155884.122;500;16.19;37253.87
1726155884.171;500;17.70;39142.07
1726155884.222;500;15.41;36285.20
1726155884.271;500;15.41;36285.20
1726155884.322;500;15.41;36285.20
1726155884.371;500;17.38;38748.20
1726155884.422;500;17.38;38748.20
1726155884.471;500;17.38;38748.20
1726155884.522;500;17.49;38883.80
1726155884.572;500;17.58;38993.87
1726155884.623;500;17.58;38993.87
1726155884.673;500;17.58;38993.87
1726155884.723;500;17.65;39078.20
1726155884.773;500;15.75;36710.73
1726155884.824;500;15.75;36710.73
1726155884.873;500;15.75;36710.73
1726155884.923;500;15.81;36777.67
1726155884.979;500;15.26;36099.80
1726155885.026;500;15.91;36903.80
1726155885.076;500;15.91;36903.80
1726155885.126;500;15.91;36903.80
1726155885.176;500;15.49;36376.40
1726155885.226;500;16.43;37554.73
1726155885.276;500;16.43;37554.73
1726155885.326;500;15.93;36932.40
1726155885.376;500;16.51;37659.80
1726155885.426;500;16.58;37745.40
1726155885.477;500;16.58;37745.40
1726155885.527;500;16.58;37745.40
1726155885.576;500;17.49;38883.46
1726155885.626;500;17.67;39106.33
1726155885.676;500;17.67;39106.33
1726155885.726;500;17.67;39106.33
1726155885.777;500;14.08;34623.07
1726155885.828;500;17.29;38637.07
1726155885.878;500;17.29;38637.07
1726155885.928;500;17.29;38637.07
1726155885.977;500;13.88;34368.73
1726155886.027;500;15.54;36449.00
1726155886.078;500;15.54;36449.00
1726155886.128;500;15.54;36449.00
1726155886.177;500;17.20;38514.80
1726155886.227;500;17.20;38514.80
1726155886.278;500;17.20;38514.80
1726155886.328;500;17.20;38514.80
1726155886.378;500;17.80;39266.07
1726155886.428;500;14.50;35142.13
1726155886.478;500;14.50;35142.13
1726155886.528;500;14.50;35142.13
1726155886.578;500;17.12;38423.00
1726155886.628;500;16.79;38009.33
1726155886.677;500;16.79;38009.33
1726155886.728;500;16.79;38009.33
1726155886.778;500;16.45;37582.46
1726155886.828;500;17.23;38552.80
1726155886.878;500;17.23;38552.80
1726155886.928;500;17.23;38552.80
1726155886.978;500;17.42;38798.46
1726155887.028;500;16.93;38183.67
1726155887.078;500;16.93;38183.67
1726155887.129;500;16.80;38015.93
1726155887.179;500;17.47;38855.46
1726155887.228;500;17.47;38855.46
1726155887.278;500;17.47;38855.46
1726155887.328;500;15.49;36383.93
1726155887.378;500;17.38;38745.27
1726155887.428;500;17.38;38745.27
1726155887.478;500;17.38;38745.27
1726155887.528;500;17.38;38745.27
1726155887.581;500;15.34;36188.27
1726155887.629;500;16.15;37207.33
1726155887.678;500;16.15;37207.33
1726155887.729;500;16.15;37207.33
1726155887.779;500;17.37;38731.40
1726155887.829;500;17.53;38931.33
1726155887.878;500;17.53;38931.33
1726155887.929;500;17.53;38931.33
1726155887.979;500;15.87;36851.67
1726155888.029;500;16.64;37820.40
1726155888.079;500;16.64;37820.40
1726155888.129;500;16.64;37820.40
1726155888.181;500;16.07;37105.07
1726155888.231;500;14.92;35669.54
1726155888.281;500;14.92;35669.54
1726155888.331;500;14.92;35669.54
1726155888.381;500;17.44;38816.20
1726156238.156;50;14.60;35269.93
1726156238.206;50;14.60;35269.93
1726156238.256;50;14.60;35269.93
1726156238.306;50;14.63;35312.80
1726156238.356;50;14.63;35312.80
1726156238.406;50;16.14;37197.87
1726156238.456;50;16.14;37197.87
1726156238.506;50;16.14;37197.87
1726156238.558;50;15.46;36345.40
1726156238.607;50;16.90;38146.73
1726156238.658;50;16.90;38146.73
1726156238.708;50;16.90;38146.73
1726156238.759;50;16.40;37523.67
1726156238.808;50;16.93;38186.54
1726156238.858;50;16.93;38186.54
1726156238.910;50;16.93;38186.54
1726156238.960;50;14.97;35730.60
1726156239.010;50;16.03;37062.93
1726156239.061;50;16.03;37062.93
1726156239.110;50;16.03;37062.93
1726156239.160;50;16.22;37295.60
1726156239.210;50;16.66;37841.54
1726156239.260;50;16.66;37841.54
1726156239.312;50;16.66;37841.54
1726156239.361;50;14.17;34729.60
1726156239.411;50;15.67;36609.40
1726156239.462;50;15.67;36609.40
1726156239.512;50;15.67;36609.40
1726156239.561;50;14.86;35591.33
1726156239.613;50;16.06;37091.54
1726156239.662;50;16.06;37091.54
1726156239.713;50;16.06;37091.54
1726156239.762;50;14.16;34715.67
1726156239.813;50;15.13;35932.07
1726156239.863;50;15.13;35932.07
1726156239.913;50;15.13;35932.07
1726156239.963;50;16.66;37840.73
1726156240.013;50;16.77;37984.00
1726156240.062;50;16.77;37984.00
1726156240.112;50;16.65;37828.07
1726156240.162;50;16.14;37190.27
1726156240.214;50;14.18;34745.46
1726156240.263;50;14.18;34745.46
1726156240.314;50;14.51;35155.40
1726156240.364;50;14.85;35582.07
1726156240.414;50;13.86;34340.40
1726156240.464;50;13.86;34340.40
1726156240.515;50;15.16;35972.67
1726156240.564;50;16.19;37252.60
1726156240.614;50;15.23;36056.60
1726156240.665;50;15.23;36056.60
1726156240.715;50;15.23;36056.60
1726156240.765;50;17.46;38850.27
1726156240.815;50;16.35;37453.27
1726156240.865;50;16.35;37453.27
1726156240.916;50;16.35;37453.27
1726156240.965;50;15.20;36017.46
1726156241.015;50;15.08;35869.93
1726156241.065;50;15.08;35869.93
1726156241.116;50;15.08;35869.93
1726156241.165;50;15.08;35869.93
1726156241.216;50;14.44;35073.87
1726156241.266;50;16.22;37296.73
1726156241.316;50;15.64;36565.33
1726156241.366;50;15.64;36565.33
1726156241.416;50;16.20;37271.60
1726156241.466;50;14.61;35282.46
1726156241.517;50;13.96;34470.20
1726156241.566;50;13.96;34470.20
1726156241.616;50;13.96;34470.20
1726156241.666;50;16.14;37190.00
1726156241.716;50;16.60;37771.46
1726156241.767;50;16.60;37771.46
1726156241.816;50;16.60;37771.46
1726156241.867;50;15.44;36315.60
1726156241.916;50;15.44;36315.60
1726156241.966;50;15.44;36315.60
1726156242.017;50;13.91;34402.93
1726156242.067;50;16.23;37302.60
1726156242.117;50;16.44;37575.87
1726156242.166;50;16.44;37575.87
1726156242.217;50;16.44;37575.87
1726156242.267;50;16.78;37991.20
1726156242.317;50;14.60;35265.00
1726156242.367;50;14.60;35265.00
1726156242.416;50;14.71;35402.33
1726156242.467;50;16.46;37592.46
1726156242.517;50;14.06;34597.60
1726156242.567;50;14.06;34597.60
1726156242.617;50;14.06;34597.60
1726156242.668;50;14.43;35053.67
1726156242.718;50;14.44;35074.40
1726156242.768;50;14.44;35074.40
1726156242.818;50;14.44;35074.40
1726156242.869;50;16.40;37525.60
1726156242.918;50;16.32;37426.20
1726156242.968;50;16.32;37426.20
1726156243.019;50;16.32;37426.20
1726156243.068;50;17.19;38502.60
1726156243.118;50;15.87;36862.20
1726156243.168;50;15.87;36862.20
1726156243.218;50;15.87;36862.20
1726156243.269;50;15.27;36102.27
1726156243.319;50;17.16;38472.00
1726156243.369;50;17.16;38472.00
1726156243.419;50;17.16;38472.00
1726156243.469;50;15.38;36250.33
1726156255.979;50;14.16;34712.67
1726156256.030;50;13.87;34357.07
1726156256.079;50;13.87;34357.07
1726156256.180;50;15.56;36463.67
1726156256.230;50;13.98;34487.87
1726156256.281;50;13.98;34487.87
1726156256.330;50;13.98;34487.87
1726156256.381;50;14.50;35145.07
1726156256.431;50;16.77;37980.67
1726156256.481;50;16.77;37980.67
1726156256.531;50;16.77;37980.67
1726156256.581;50;16.77;37978.93
1726156256.631;50;16.77;37978.93
1726156256.682;50;16.77;37978.93
1726156256.731;50;13.62;34037.93
1726156256.783;50;15.20;36024.93
1726156256.832;50;16.19;37259.27
1726156256.882;50;16.19;37259.27
1726156256.933;50;16.40;37523.93
1726156256.983;50;15.46;36339.20
1726156257.032;50;13.64;34070.54
1726156257.083;50;13.64;34070.54
1726156257.133;50;13.64;34070.54
1726156257.184;50;13.62;34048.67
1726156257.233;50;16.25;37327.00
1726156257.284;50;16.25;37327.00
1726156257.334;50;16.25;37327.00
1726156257.384;50;14.16;34715.67
1726156257.435;50;15.01;35775.87
1726156257.484;50;15.01;35775.87
1726156257.535;50;15.01;35775.87
1726156257.586;50;14.06;34591.20
1726156257.636;50;16.57;37733.27
1726156257.685;50;16.57;37733.27
1726156257.735;50;16.57;37733.27
1726156257.787;50;14.83;35552.33
1726156257.837;50;14.83;35552.33
1726156257.886;50;14.83;35552.33
1726156257.938;50;15.26;36095.40
1726156257.988;50;16.02;37045.60
1726156258.039;50;16.02;37045.60
1726156258.089;50;16.02;37045.60
1726156258.139;50;15.68;36617.46
1726156258.188;50;15.73;36683.13
1726156258.239;50;15.73;36683.13
1726156258.289;50;15.73;36683.13
1726156258.339;50;15.17;35978.73
1726156258.388;50;16.03;37061.07
1726156258.439;50;16.03;37061.07
1726156258.488;50;16.03;37061.07
1726156258.539;50;17.23;38560.40
1726156258.589;50;17.17;38483.67
1726156258.639;50;17.17;38483.67
1726156258.689;50;17.17;38483.67
1726156258.740;50;14.30;34897.27
1726156258.789;50;14.22;34796.13
1726156258.839;50;14.22;34796.13
1726156258.889;50;14.22;34796.13
1726156258.939;50;15.12;35915.67
1726156258.989;50;13.94;34443.73
1726156259.039;50;15.30;36142.73
1726156259.089;50;15.30;36142.73
1726156259.139;50;15.30;36142.73
1726156259.190;50;14.43;35062.73
1726156259.239;50;16.76;37965.73
1726156259.289;50;16.76;37965.73
1726156259.341;50;16.76;37965.73
1726156259.391;50;14.84;35565.87
1726156259.440;50;16.39;37507.80
1726156259.490;50;16.39;37507.80
1726156259.540;50;16.39;37507.80
1726156259.590;50;16.21;37277.27
1726156259.640;50;16.42;37544.33
1726156259.691;50;16.42;37544.33
1726156259.740;50;16.42;37544.33
1726156259.790;50;15.18;35994.80
1726156259.841;50;17.67;39103.73
1726156259.891;50;17.67;39103.73
1726156259.940;50;17.67;39103.73
1726156259.990;50;14.95;35704.00
1726156260.040;50;14.95;35704.00
1726156260.091;50;14.95;35704.00
1726156260.142;50;16.27;37357.60
1726156260.192;50;16.45;37579.13
1726156260.242;50;16.45;37579.13
1726156260.292;50;16.45;37579.13
1726156260.342;50;15.28;36120.07
1726156260.393;50;14.92;35664.27
1726156260.442;50;13.82;34292.27
1726156260.492;50;13.82;34292.27
1726156260.542;50;13.82;34292.27
1726156260.592;50;16.61;37785.67
1726156260.643;50;16.71;37905.67
1726156260.693;50;16.71;37905.67
1726156260.744;50;16.71;37905.67
1726156260.793;50;15.99;37010.87
1726156260.843;50;14.39;35000.60
1726156260.894;50;14.39;35000.60
1726156260.944;50;14.39;35000.60
1726156260.994;50;16.85;38078.13
1726156261.044;50;15.70;36639.40
1726156261.093;50;15.70;36639.40
1726156261.144;50;15.70;36639.40
1726156261.195;50;15.19;36009.60
1726156273.944;50;13.47;33849.87
1726156273.994;50;13.47;33849.87
1726156274.045;50;13.47;33849.87
1726156274.095;50;14.18;34740.54
1726156274.146;50;16.53;37677.93
1726156274.196;50;16.53;37677.93
1726156274.247;50;15.47;36354.27
1726156274.296;50;14.45;35083.60
1726156274.347;50;14.45;35083.60
1726156274.397;50;14.45;35083.60
1726156274.448;50;17.01;38285.40
1726156274.498;50;15.60;36522.46
1726156274.547;50;15.60;36522.46
1726156274.597;50;15.60;36522.46
1726156274.648;50;16.91;38155.54
1726156274.697;50;16.06;37098.00
1726156274.747;50;16.06;37098.00
1726156274.798;50;16.06;37098.00
1726156274.848;50;14.97;35726.54
1726156274.897;50;16.73;37929.87
1726156274.947;50;16.73;37929.87
1726156274.998;50;16.73;37929.87
1726156275.047;50;17.01;38281.54
1726156275.097;50;16.10;37147.93
1726156275.148;50;16.10;37147.93
1726156275.198;50;16.10;37147.93
1726156275.247;50;15.92;36918.20
1726156275.298;50;15.75;36704.33
1726156275.348;50;15.75;36704.33
1726156275.398;50;15.75;36704.33
1726156275.448;50;17.33;38682.33
1726156275.498;50;17.33;38682.33
1726156275.548;50;17.33;38682.33
1726156275.598;50;13.84;34316.46
1726156275.648;50;15.01;35786.27
1726156275.699;50;15.01;35786.27
1726156275.748;50;15.01;35786.27
1726156275.798;50;15.01;35786.27
1726156275.848;50;16.66;37848.93
1726156275.898;50;15.43;36309.40
1726156275.948;50;15.43;36309.40
1726156275.998;50;15.43;36309.40
1726156276.048;50;15.92;36921.80
1726156276.098;50;15.09;35878.60
1726156276.148;50;15.09;35878.60
1726156276.198;50;15.09;35878.60
1726156276.248;50;17.34;38692.27
1726156276.299;50;15.83;36807.07
1726156276.348;50;15.83;36807.07
1726156276.399;50;15.83;36807.07
1726156276.448;50;15.59;36511.13
1726156276.498;50;15.21;36028.33
1726156276.549;50;15.32;36169.07
1726156276.599;50;15.32;36169.07
1726156276.649;50;15.32;36169.07
1726156276.699;50;16.52;37668.27
1726156276.749;50;15.25;36077.00
1726156276.799;50;15.25;36077.00
1726156276.849;50;15.25;36077.00
1726156276.899;50;14.96;35720.00
1726156276.950;50;15.90;36898.33
1726156276.999;50;15.90;36898.33
1726156277.050;50;15.90;36898.33
1726156277.099;50;15.74;36689.40
1726156277.150;50;15.38;36248.33
1726156277.199;50;15.38;36248.33
1726156277.250;50;15.38;36248.33
1726156277.300;50;14.12;34663.73
1726156277.350;50;15.52;36420.73
1726156277.400;50;15.52;36420.73
1726156277.451;50;15.52;36420.73
1726156277.500;50;14.79;35504.33
1726156277.550;50;15.09;35885.07
1726156277.600;50;15.09;35885.07
1726156277.650;50;15.09;35885.07
1726156277.701;50;16.21;37283.13
1726156277.750;50;16.50;37642.07
1726156277.800;50;16.50;37642.07
1726156277.850;50;16.50;37642.07
1726156277.901;50;14.78;35497.33
1726156277.950;50;14.78;35497.33
1726156278.001;50;14.78;35497.33
1726156278.050;50;14.64;35320.40
1726156278.101;50;14.32;34914.93
1726156278.151;50;16.11;37155.40
1726156278.200;50;16.11;37155.40
1726156278.251;50;16.11;37155.40
1726156278.301;50;16.11;37155.40
1726156278.351;50;16.09;37128.60
1726156278.401;50;15.26;36089.46
1726156278.450;50;15.55;36459.67
1726156278.502;50;15.55;36459.67
1726156278.552;50;15.55;36459.67
1726156278.601;50;16.75;37953.73
1726156278.651;50;14.90;35646.40
1726156278.701;50;14.90;35646.40
1726156278.752;50;14.90;35646.40
1726156278.802;50;16.60;37767.27
1726156278.852;50;17.82;39299.20
1726156278.902;50;17.82;39299.20
1726156278.952;50;17.82;39299.20
1726156279.001;50;16.93;38184.87
1726156279.052;50;16.93;38184.87
1726156279.101;50;16.93;38184.87
1726156279.151;50;16.99;38254.93
1726156279.202;50;15.95;36959.07
1726156279.252;50;16.03;37052.67
1726156279.302;50;16.03;37052.67
1726156279.351;50;14.73;35426.27
1726156279.402;50;15.55;36451.93
1726156279.452;50;17.27;38607.54
1726156279.501;50;17.27;38607.54
1726156279.551;50;17.27;38607.54
1726156279.601;50;17.54;38943.27
1726156279.651;50;16.33;37435.54
1726156365.138;90;30.00;34116.80
1726156365.188;90;30.00;34116.80
1726156365.239;91;30.00;34284.67
1726156365.288;106;30.00;37046.60
1726156365.338;99;30.00;35779.27
1726156365.389;99;30.00;35779.27
1726156365.439;97;30.00;35445.67
1726156365.488;112;30.00;38097.20
1726156365.539;112;30.00;38097.20
1726156365.589;112;30.00;38097.20
1726156365.639;114;30.00;38583.40
1726156365.689;113;30.00;38361.20
1726156365.740;113;30.00;38361.20
1726156365.790;113;30.00;38361.20
1726156365.842;94;30.00;34848.67
1726156365.891;105;30.00;36887.60
1726156365.942;105;30.00;36887.60
1726156365.992;105;30.00;36887.60
1726156366.042;98;30.00;35527.20
1726156366.092;114;30.00;38483.40
1726156366.142;114;30.00;38483.40
1726156366.193;114;30.00;38483.40
1726156366.242;113;30.00;38388.46
1726156366.293;111;30.00;37956.33
1726156366.343;111;30.00;37956.33
1726156366.393;111;30.00;37956.33
1726156366.443;100;30.00;35931.33
1726156366.492;115;30.00;38740.87
1726156366.542;115;30.00;38740.87
1726156366.592;115;30.00;38740.87
1726156366.642;115;30.00;38740.87
1726156366.693;113;30.00;38397.00
1726156366.743;117;30.00;39047.46
1726156366.793;117;30.00;39047.46
1726156366.843;117;30.00;39047.46
1726156366.894;98;30.00;35587.73
1726156366.944;91;30.00;34284.60
1726156366.993;91;30.00;34284.60
1726156367.044;91;30.00;34284.60
1726156367.093;96;30.00;35179.27
1726156367.144;93;30.00;34694.93
1726156367.194;93;30.00;34694.93
1726156367.245;93;30.00;34694.93
1726156367.295;93;30.00;34762.13
1726156367.345;115;30.00;38623.67
1726156367.395;115;30.00;38623.67
1726156367.445;115;30.00;38623.67
1726156367.495;115;30.00;38769.40
1726156367.545;114;30.00;38453.20
1726156367.595;114;30.00;38453.20
1726156367.644;113;30.00;38403.07
1726156367.696;118;30.00;39235.80
1726156367.746;118;30.00;39235.80
1726156367.802;118;30.00;39235.80
1726156367.848;118;30.00;39235.80
1726156367.898;90;30.00;34098.93
1726156367.949;93;30.00;34692.27
1726156367.999;93;30.00;34692.27
1726156368.050;93;30.00;34692.27
1726156368.100;102;30.00;36317.20
1726156368.150;102;30.00;36317.20
1726156368.200;102;30.00;36317.20
1726156368.250;114;30.00;38555.87
1726156368.300;115;30.00;38713.67
1726156368.350;115;30.00;38713.67
1726156368.400;115;30.00;38713.67
1726156368.451;101;30.00;36173.40
1726156368.500;116;30.00;38878.40
1726156368.550;116;30.00;38878.40
1726156368.600;116;30.00;38878.40
1726156368.650;113;30.00;38296.27
1726156368.701;91;30.00;34361.33
1726156368.751;91;30.00;34361.33
1726156368.801;91;30.00;34361.33
1726156368.851;117;30.00;38992.54
1726156368.901;97;30.00;35357.40
1726156368.952;95;30.00;35100.80
1726156369.001;95;30.00;35100.80
1726156369.051;106;30.00;37081.40
1726156369.151;98;30.00;35674.40
1726156369.201;98;30.00;35674.40
1726156369.251;98;30.00;35674.40
1726156369.302;91;30.00;34392.33
1726156369.351;100;30.00;36036.67
1726156369.402;100;30.00;36036.67
1726156369.452;100;30.00;36036.67
1726156369.502;112;30.00;38190.60
1726156369.552;112;30.00;38190.60
1726156369.601;112;30.00;38190.60
1726156369.651;112;30.00;38190.60
1726156369.702;91;30.00;34326.54
1726156369.752;94;30.00;34890.07
1726156369.803;94;30.00;34890.07
1726156369.852;94;30.00;34890.07
1726156369.904;97;30.00;35478.27
1726156369.954;92;30.00;34526.00
1726156370.004;92;30.00;34526.00
1726156370.054;92;30.00;34526.00
1726156370.103;117;30.00;39007.93
1726156370.154;95;30.00;34995.27
1726156370.204;95;30.00;34995.27
1726156370.254;95;30.00;34995.27
1726156370.304;119;30.00;39489.60
1726156370.354;115;30.00;38710.13
1726156370.409;115;30.00;38710.13
1726156370.456;92;30.00;34460.54
1726156382.864;88;30.00;33790.67
1726156382.914;88;30.00;33790.67
1726156382.965;101;30.00;36111.07
1726156383.015;90;30.00;34135.46
1726156383.064;90;30.00;34135.46
1726156383.114;90;30.00;34135.46
1726156383.164;96;30.00;35290.27
1726156383.214;113;30.00;38303.33
1726156383.264;113;30.00;38303.33
1726156383.315;113;30.00;38303.33
1726156383.365;102;30.00;36254.27
1726156383.415;103;30.00;36483.87
1726156383.465;103;30.00;36483.87
1726156383.515;103;30.00;36483.87
1726156383.565;119;30.00;39401.33
1726156383.615;103;30.00;36600.40
1726156383.664;119;30.00;39387.07
1726156383.716;119;30.00;39387.07
1726156383.767;119;30.00;39387.07
1726156383.817;98;30.00;35631.46
1726156383.867;110;30.00;37865.40
1726156383.917;110;30.00;37865.40
1726156383.967;110;30.00;37865.40
1726156384.017;90;30.00;34087.46
1726156384.068;93;30.00;34675.40
1726156384.117;93;30.00;34675.40
1726156384.168;93;30.00;34675.40
1726156384.217;114;30.00;38447.13
1726156384.268;115;30.00;38666.67
1726156384.317;115;30.00;38666.67
1726156384.367;115;30.00;38666.67
1726156384.419;108;30.00;37333.40
1726156384.468;109;30.00;37572.80
1726156384.518;109;30.00;37572.80
1726156384.569;109;30.00;37572.80
1726156384.619;114;30.00;38525.07
1726156384.669;118;30.00;39228.20
1726156384.718;118;30.00;39228.20
1726156384.768;118;30.00;39228.20
1726156384.818;118;30.00;39228.20
1726156384.869;91;30.00;34270.13
1726156384.919;109;30.00;37546.60
1726156384.969;109;30.00;37546.60
1726156385.018;109;30.00;37546.60
1726156385.069;107;30.00;37272.54
1726156385.119;114;30.00;38427.27
1726156385.169;114;30.00;38427.27
1726156385.219;114;30.00;38427.27
1726156385.269;95;30.00;35035.20
1726156385.319;101;30.00;36102.13
1726156385.370;98;30.00;35577.54
1726156385.420;98;30.00;35577.54
1726156385.470;106;30.00;37076.54
1726156385.520;116;30.00;38940.07
1726156385.570;91;30.00;34402.33
1726156385.620;91;30.00;34402.33
1726156385.670;91;30.00;34402.33
1726156385.721;95;30.00;34977.40
1726156385.771;93;30.00;34738.54
1726156385.821;93;30.00;34738.54
1726156385.872;93;30.00;34738.54
1726156385.921;108;30.00;37362.13
1726156385.972;108;30.00;37362.13
1726156386.022;108;30.00;37362.13
1726156386.073;99;30.00;35694.40
1726156386.122;102;30.00;36379.54
1726156386.172;115;30.00;38705.33
1726156386.222;115;30.00;38705.33
1726156386.274;115;30.00;38705.33
1726156386.324;110;30.00;37714.40
1726156386.374;90;30.00;34143.33
1726156386.424;90;30.00;34143.33
1726156386.474;90;30.00;34143.33
1726156386.524;108;30.00;37470.80
1726156386.574;106;30.00;36992.13
1726156386.624;106;30.00;36992.13
1726156386.674;106;30.00;36992.13
1726156386.724;89;30.00;34022.54
1726156386.775;105;30.00;36895.54
1726156386.824;105;30.00;36895.54
1726156386.874;105;30.00;36895.54
1726156386.924;109;30.00;37636.60
1726156386.975;101;30.00;36058.67
1726156387.024;101;30.00;36058.67
1726156387.075;101;30.00;36058.67
1726156387.124;100;30.00;36024.07
1726156387.175;110;30.00;37728.13
1726156387.224;110;30.00;37728.13
1726156387.274;110;30.00;37728.13
1726156387.326;94;30.00;34789.93
1726156387.375;94;30.00;34789.93
1726156387.426;94;30.00;34789.93
1726156387.477;94;30.00;34789.93
1726156387.526;99;30.00;35780.80
1726156387.576;91;30.00;34319.07
1726156387.627;91;30.00;34319.07
1726156387.677;91;30.00;34319.07
1726156387.727;111;30.00;37950.07
1726156387.777;91;30.00;34370.67
1726156387.827;91;30.00;34370.67
1726156387.877;91;30.00;34370.67
1726156387.927;119;30.00;39380.27
1726156387.977;111;30.00;38050.67
1726156388.027;111;30.00;38050.67
1726156388.076;111;30.00;38050.67
1726156388.128;115;30.00;38621.67
1726156388.185;113;30.00;38281.54
1726156388.232;113;30.00;38281.54
1726156388.282;113;30.00;38281.54
1726156388.332;90;30.00;34113.20
1726156400.567;94;30.00;34894.54
1726156400.617;94;30.00;34894.54
1726156400.668;94;30.00;34894.54
1726156400.717;97;30.00;35339.40
1726156400.767;116;30.00;38827.54
1726156400.817;116;30.00;38827.54
1726156400.868;116;30.00;38827.54
1726156400.919;109;30.00;37579.20
1726156400.968;93;30.00;34610.13
1726156401.018;93;30.00;34610.13
1726156401.069;93;30.00;34610.13
1726156401.118;93;30.00;34691.46
1726156401.168;105;30.00;36829.33
1726156401.219;105;30.00;36829.33
1726156401.268;105;30.00;36829.33
1726156401.319;109;30.00;37639.87
1726156401.369;100;30.00;36013.73
1726156401.419;100;30.00;36013.73
1726156401.469;100;30.00;36013.73
1726156401.519;94;30.00;34884.60
1726156401.568;97;30.00;35468.93
1726156401.619;97;30.00;35468.93
1726156401.668;97;30.00;35468.93
1726156401.719;105;30.00;36845.60
1726156401.769;113;30.00;38410.33
1726156401.819;113;30.00;38410.33
1726156401.870;113;30.00;38410.33
1726156401.920;108;30.00;37333.27
1726156401.971;117;30.00;39010.40
1726156402.020;117;30.00;39010.40
1726156402.071;117;30.00;39010.40
1726156402.121;107;30.00;37287.60
1726156402.170;115;30.00;38742.13
1726156402.220;115;30.00;38742.13
1726156402.270;115;30.00;38742.13
1726156402.321;95;30.00;35029.60
1726156402.371;114;30.00;38436.54
1726156402.422;114;30.00;38436.54
1726156402.472;114;30.00;38436.54
1726156402.522;106;30.00;36970.80
1726156402.571;109;30.00;37613.13
1726156402.622;109;30.00;37613.13
1726156402.671;109;30.00;37613.13
1726156402.722;110;30.00;37798.27
1726156402.771;112;30.00;38069.67
1726156402.822;112;30.00;38069.67
1726156402.871;112;30.00;38069.67
1726156402.922;107;30.00;37207.54
1726156402.971;95;30.00;35032.73
1726156403.022;95;30.00;35032.73
1726156403.072;95;30.00;35032.73
1726156403.122;104;30.00;36757.20
1726156403.172;118;30.00;39324.60
1726156403.223;118;30.00;39324.60
1726156403.273;118;30.00;39324.60
1726156403.323;101;30.00;36141.27
1726156403.372;91;30.00;34236.00
1726156403.423;91;30.00;34236.00
1726156403.473;91;30.00;34236.00
1726156403.523;111;30.00;38021.54
1726156403.573;98;30.00;35512.46
1726156403.623;98;30.00;35512.46
1726156403.673;98;30.00;35512.46
1726156403.723;100;30.00;35971.67
1726156403.773;118;30.00;39157.40
1726156403.824;118;30.00;39157.40
1726156403.874;118;30.00;39157.40
1726156403.923;117;30.00;39012.20
1726156403.974;114;30.00;38475.54
1726156404.024;114;30.00;38475.54
1726156404.074;114;30.00;38475.54
1726156404.124;107;30.00;37269.07
1726156404.174;109;30.00;37671.60
1726156404.225;109;30.00;37671.60
1726156404.274;109;30.00;37671.60
1726156404.324;91;30.00;34326.40
1726156404.375;114;30.00;38477.60
1726156404.425;105;30.00;36918.73
1726156404.474;105;30.00;36918.73
1726156404.524;104;30.00;36611.20
1726156404.725;118;30.00;39278.93
1726156404.774;91;30.00;34373.73
1726156404.824;91;30.00;34373.73
1726156404.875;91;30.00;34373.73
1726156404.924;93;30.00;34625.87
1726156404.976;101;30.00;36063.60
1726156405.026;101;30.00;36063.60
1726156405.075;97;30.00;35503.46
1726156405.126;113;30.00;38264.80
1726156405.176;116;30.00;38837.27
1726156405.226;116;30.00;38837.27
1726156405.276;116;30.00;38837.27
1726156405.326;119;30.00;39367.87
1726156405.376;114;30.00;38506.73
1726156405.426;114;30.00;38506.73
1726156405.476;114;30.00;38506.73
1726156405.526;105;30.00;36928.54
1726156405.576;105;30.00;36901.40
1726156405.626;96;30.00;35175.00
1726156405.676;96;30.00;35175.00
1726156405.727;96;30.00;35175.00
1726156405.776;117;30.00;39089.00
1726156405.826;92;30.00;34460.00
1726156405.876;110;30.00;37785.07
1726156405.927;110;30.00;37785.07
1726156405.977;110;30.00;37785.07
1726156406.027;117;30.00;39105.54
