UnixTimestamp;Microseconds;MilliAmpere;BaseValue
1739991001.464;114;50.00;34766.93
1739991001.511;114;50.00;34766.93
1739991001.912;121;50.00;36215.13
1739991001.962;121;50.00;36215.13
1739991002.012;124;50.00;36844.00
1739991002.061;132;50.00;38360.00
1739991002.111;132;50.00;38360.00
1739991002.162;127;50.00;37370.93
1739991002.212;127;50.00;37370.93
1739991002.261;117;50.00;35379.13
1739991002.312;117;50.00;35379.13
1739991002.362;130;50.00;38064.00
1739991002.412;130;50.00;37952.80
1739991002.461;130;50.00;37952.80
1739991002.512;121;50.00;36313.07
1739991002.561;121;50.00;36313.07
1739991002.612;121;50.00;36313.07
1739991002.662;125;50.00;36965.07
1739991002.711;125;50.00;36965.07
1739991002.762;114;50.00;34860.13
1739991002.811;114;50.00;34860.13
1739991002.862;120;50.00;36102.07
1739991002.912;120;50.00;36102.07
1739991002.961;120;50.00;36102.07
1739991003.012;126;50.00;37237.07
1739991003.062;126;50.00;37237.07
1739991003.111;123;50.00;36746.93
1739991003.262;127;50.00;37511.87
1739991003.312;127;50.00;37511.87
1739991003.362;116;50.00;35274.20
1739991003.411;116;50.00;35274.20
1739991003.462;117;50.00;35455.00
1739991003.512;118;50.00;35635.60
1739991003.562;118;50.00;35635.60
1739991003.611;123;50.00;36576.54
1739991003.662;127;50.00;37400.27
1739991003.712;127;50.00;37400.27
1739991003.762;114;50.00;34958.40
1739991003.811;114;50.00;34958.40
1739991003.862;128;50.00;37684.00
1739991003.912;128;50.00;37684.00
1739991003.962;128;50.00;37647.07
1739991004.011;116;50.00;35299.20
1739991004.062;116;50.00;35299.20
1739991004.111;118;50.00;35633.60
1739991004.162;118;50.00;35633.60
1739991004.212;118;50.00;35633.60
1739991004.262;126;50.00;37279.07
1739991004.312;126;50.00;37279.07
1739991004.362;118;50.00;35597.73
1739991004.412;118;50.00;35597.73
1739991004.462;118;50.00;35597.73
1739991004.511;118;50.00;35592.54
1739991004.562;118;50.00;35592.54
1739991004.612;122;50.00;36358.93
1739991004.662;120;50.00;36017.07
1739991004.712;120;50.00;36017.07
1739991004.762;120;50.00;36133.87
1739991004.811;120;50.00;36133.87
1739991004.862;132;50.00;38435.60
1739991004.912;132;50.00;38435.60
1739991004.962;129;50.00;37942.40
1739991005.012;124;50.00;36797.60
1739991005.062;124;50.00;36797.60
1739991005.112;122;50.00;36368.80
1739991005.162;122;50.00;36368.80
1739991005.213;114;50.00;34898.40
1739991005.262;114;50.00;34898.40
1739991005.312;114;50.00;34898.40
1739991005.362;118;50.00;35628.80
1739991005.412;118;50.00;35628.80
1739991005.462;119;50.00;35795.20
1739991005.512;125;50.00;37042.33
1739991005.562;125;50.00;37042.33
1739991005.612;123;50.00;36733.46
1739991005.662;123;50.00;36733.46
1739991005.712;118;50.00;35677.33
1739991005.762;128;50.00;37566.67
1739991005.812;128;50.00;37566.67
1739991005.862;117;50.00;35417.20
1739991005.912;117;50.00;35417.20
1739991006.062;124;50.00;36837.87
1739991006.112;113;50.00;34717.33
1739991006.162;113;50.00;34717.33
1739991015.258;121;50.00;36282.93
1739991015.308;121;50.00;36282.93
1739991015.358;117;50.00;35445.33
1739991015.408;117;50.00;35445.33
1739991015.458;129;50.00;37860.00
1739991015.508;122;50.00;36510.13
1739991015.558;122;50.00;36510.13
1739991015.608;127;50.00;37358.00
1739991015.658;127;50.00;37358.00
1739991015.708;128;50.00;37675.60
1739991015.758;117;50.00;35447.07
1739991015.809;117;50.00;35447.07
1739991015.858;125;50.00;37128.54
1739991015.908;125;50.00;37128.54
1739991015.958;115;50.00;34988.27
1739991016.008;115;50.00;34964.80
1739991016.059;115;50.00;34964.80
1739991016.108;118;50.00;35714.46
1739991016.158;140;50.00;40007.20
1739991016.208;140;50.00;40007.20
1739991016.258;124;50.00;36913.07
1739991016.308;124;50.00;36913.07
1739991016.358;120;50.00;36129.33
1739991016.408;120;50.00;36129.33
1739991016.459;120;50.00;36137.54
1739991016.509;119;50.00;35944.20
1739991016.558;119;50.00;35944.20
1739991016.608;121;50.00;36184.27
1739991016.658;121;50.00;36184.27
1739991016.708;117;50.00;35493.46
1739991016.758;124;50.00;36842.33
1739991016.809;124;50.00;36842.33
1739991016.858;119;50.00;35787.73
1739991016.908;119;50.00;35787.73
1739991016.959;123;50.00;36571.87
1739991017.008;123;50.00;36571.87
1739991017.058;126;50.00;37299.73
1739991017.108;115;50.00;35019.20
1739991017.158;115;50.00;35019.20
1739991017.209;128;50.00;37656.87
1739991017.258;128;50.00;37656.87
1739991017.308;128;50.00;37656.87
1739991017.358;125;50.00;36969.73
1739991017.408;125;50.00;36969.73
1739991017.458;118;50.00;35738.40
1739991017.508;118;50.00;35738.40
1739991017.558;118;50.00;35738.40
1739991017.609;119;50.00;35898.13
1739991017.759;117;50.00;35497.07
1739991017.808;117;50.00;35497.07
1739991017.858;117;50.00;35497.07
1739991017.908;133;50.00;38681.60
1739991017.958;133;50.00;38681.60
1739991018.009;133;50.00;38681.60
1739991018.059;123;50.00;36578.93
1739991018.108;123;50.00;36578.93
1739991018.159;114;50.00;34788.54
1739991018.208;114;50.00;34788.54
1739991018.259;126;50.00;37269.73
1739991018.309;126;50.00;37269.73
1739991018.358;126;50.00;37269.73
1739991018.408;114;50.00;34835.46
1739991018.459;114;50.00;34835.46
1739991018.509;114;50.00;34835.46
1739991018.558;119;50.00;35882.93
1739991018.609;119;50.00;35882.93
1739991018.659;116;50.00;35273.60
1739991018.709;116;50.00;35273.60
1739991018.759;117;50.00;35427.07
1739991018.809;122;50.00;36468.27
1739991018.858;122;50.00;36468.27
1739991018.909;126;50.00;37220.33
1739991018.958;126;50.00;37220.33
1739991019.009;115;50.00;35065.87
1739991019.059;117;50.00;35467.07
1739991019.109;117;50.00;35467.07
1739991019.258;120;50.00;35960.27
1739991019.308;120;50.00;35960.27
1739991019.359;116;50.00;35182.60
1739991019.409;125;50.00;36975.87
1739991019.459;125;50.00;36975.87
1739991019.559;115;50.00;35034.80
1739991019.609;115;50.00;35034.80
1739991019.659;118;50.00;35579.46
1739991019.709;118;50.00;35579.46
1739991019.760;121;50.00;36306.27
1739991019.810;121;50.00;36306.27
1739991019.860;127;50.00;37423.73
1739991029.309;114;50.00;34800.54
1739991029.359;114;50.00;34800.54
1739991029.409;115;50.00;35067.20
1739991029.459;117;50.00;35422.40
1739991029.510;117;50.00;35422.40
1739991029.559;133;50.00;38698.93
1739991029.609;133;50.00;38698.93
1739991029.659;121;50.00;36309.60
1739991029.709;116;50.00;35270.13
1739991029.759;116;50.00;35270.13
1739991029.809;115;50.00;35023.20
1739991029.859;115;50.00;35023.20
1739991029.909;115;50.00;35023.20
1739991029.959;121;50.00;36233.46
1739991030.009;121;50.00;36233.46
1739991030.059;115;50.00;35114.93
1739991030.109;115;50.00;35114.93
1739991030.159;126;50.00;37298.93
1739991030.209;126;50.00;37298.93
1739991030.259;126;50.00;37268.80
1739991030.409;129;50.00;37811.60
1739991030.459;129;50.00;37811.60
1739991030.509;127;50.00;37538.67
1739991030.559;124;50.00;36827.33
1739991030.609;124;50.00;36827.33
1739991030.660;125;50.00;37024.40
1739991030.710;125;50.00;37024.40
1739991030.759;125;50.00;37024.40
1739991030.810;116;50.00;35214.67
1739991030.859;116;50.00;35214.67
1739991030.911;125;50.00;37096.00
1739991030.961;130;50.00;38087.73
1739991031.010;130;50.00;38087.73
1739991031.060;128;50.00;37723.93
1739991031.111;128;50.00;37723.93
1739991031.160;115;50.00;35061.33
1739991031.210;115;50.00;35061.33
1739991031.260;115;50.00;35061.33
1739991031.311;126;50.00;37332.80
1739991031.360;126;50.00;37332.80
1739991031.410;117;50.00;35403.20
1739991031.460;117;50.00;35403.20
1739991031.510;117;50.00;35403.20
1739991031.560;115;50.00;35113.33
1739991031.610;115;50.00;35113.33
1739991031.660;127;50.00;37442.00
1739991031.710;127;50.00;37442.00
1739991031.760;116;50.00;35300.00
1739991031.810;116;50.00;35300.00
1739991031.860;116;50.00;35300.00
1739991031.910;120;50.00;36126.93
1739991031.961;120;50.00;36126.93
1739991032.011;124;50.00;36760.93
1739991032.061;120;50.00;36030.40
1739991032.110;120;50.00;36030.40
1739991032.161;122;50.00;36357.27
1739991032.210;122;50.00;36357.27
1739991032.261;126;50.00;37318.80
1739991032.312;126;50.00;37318.80
1739991032.362;118;50.00;35720.00
1739991032.412;131;50.00;38165.07
1739991032.462;131;50.00;38165.07
1739991032.513;126;50.00;37178.40
1739991032.563;126;50.00;37178.40
1739991032.613;126;50.00;37178.40
1739991032.663;113;50.00;34731.67
1739991032.713;113;50.00;34731.67
1739991032.763;114;50.00;34908.00
1739991032.813;114;50.00;34908.00
1739991032.862;129;50.00;37796.13
1739991032.913;129;50.00;37796.13
1739991032.962;129;50.00;37796.13
1739991033.013;119;50.00;35888.40
1739991033.062;119;50.00;35888.40
1739991033.114;123;50.00;36635.73
1739991033.163;117;50.00;35444.00
1739991033.213;117;50.00;35444.00
1739991033.264;118;50.00;35578.93
1739991033.314;118;50.00;35578.93
1739991033.364;120;50.00;35973.33
1739991033.414;120;50.00;35973.33
1739991033.465;118;50.00;35754.40
1739991289.246;400;30.58;37333.07
1739991289.296;400;30.58;37333.07
1739991289.345;400;29.38;36311.73
1739991289.396;400;29.38;36311.73
1739991289.445;400;29.38;36311.73
1739991289.496;400;31.40;38024.80
1739991289.546;400;31.40;38024.80
1739991289.596;400;31.40;38024.80
1739991289.646;400;29.52;36431.73
1739991289.696;400;29.52;36431.73
1739991289.746;400;30.27;37067.60
1739991289.797;400;31.32;37961.07
1739991289.847;400;31.32;37961.07
1739991289.897;400;30.59;37343.73
1739991289.946;400;32.97;39363.46
1739991289.997;400;32.97;39363.46
1739991290.047;400;29.45;36372.67
1739991290.097;400;29.45;36372.67
1739991290.147;400;32.21;38713.87
1739991290.197;400;30.34;37125.73
1739991290.247;400;30.34;37125.73
1739991290.297;400;30.35;37139.20
1739991290.347;400;30.35;37139.20
1739991290.397;400;30.35;37139.20
1739991290.448;400;32.12;38644.00
1739991290.498;400;32.12;38644.00
1739991290.547;400;30.61;37360.00
1739991290.597;400;30.29;37088.93
1739991290.647;400;30.29;37088.93
1739991290.698;400;28.29;35390.54
1739991290.747;400;30.55;37307.60
1739991290.797;400;30.55;37307.60
1739991290.847;400;31.05;37733.73
1739991290.898;400;31.05;37733.73
1739991290.948;400;31.05;37733.73
1739991290.998;400;31.57;38177.20
1739991291.048;400;31.57;38177.20
1739991291.098;400;31.57;38177.20
1739991291.147;400;29.89;36751.87
1739991291.197;400;29.89;36751.87
1739991291.248;400;30.57;37321.07
1739991291.298;400;30.23;37032.80
1739991291.347;400;30.23;37032.80
1739991291.397;400;29.60;36499.73
1739991291.447;400;29.60;36499.73
1739991291.497;400;29.60;36499.73
1739991291.547;400;29.17;36133.46
1739991291.598;400;29.17;36133.46
1739991291.648;400;29.17;36133.46
1739991291.697;400;29.16;36129.07
1739991291.747;400;29.16;36129.07
1739991291.798;400;29.16;36129.07
1739991291.847;400;29.66;36556.54
1739991291.897;400;29.66;36556.54
1739991291.947;400;33.61;39900.40
1739991291.998;400;33.61;39900.40
1739991292.048;400;33.61;39900.40
1739991292.097;400;29.49;36410.40
1739991292.147;400;29.49;36410.40
1739991292.198;400;29.49;36410.40
1739991292.248;400;30.48;37251.20
1739991292.298;400;30.48;37251.20
1739991292.347;400;30.48;37244.93
1739991292.397;400;30.69;37425.27
1739991292.448;400;30.69;37425.27
1739991292.499;400;30.84;37557.87
1739991292.549;400;29.81;36677.07
1739991292.599;400;29.81;36677.07
1739991292.649;400;30.07;36902.13
1739991292.699;400;30.07;36902.13
1739991292.749;400;29.02;36006.67
1739991292.799;400;32.43;38904.00
1739991292.849;400;32.43;38904.00
1739991292.899;400;32.43;38904.00
1739991303.933;400;28.59;35645.60
1739991303.983;400;28.59;35645.60
1739991304.032;400;27.85;35013.33
1739991304.083;400;28.37;35457.07
1739991304.133;400;28.37;35457.07
1739991304.183;400;31.64;38230.13
1739991304.233;400;31.64;38230.13
1739991304.282;400;31.64;38230.13
1739991304.332;400;32.53;38988.27
1739991304.383;400;32.53;38988.27
1739991304.432;400;32.53;38988.27
1739991304.483;400;29.07;36047.73
1739991304.532;400;29.07;36047.73
1739991304.583;400;29.07;36047.73
1739991304.633;400;32.86;39270.40
1739991304.682;400;32.86;39270.40
1739991304.732;400;28.65;35699.46
1739991304.783;400;27.57;34780.54
1739991304.832;400;27.57;34780.54
1739991304.883;400;30.96;37657.60
1739991304.933;400;30.96;37657.60
1739991304.983;400;30.87;37579.46
1739991305.033;400;30.79;37513.07
1739991305.082;400;30.79;37513.07
1739991305.133;400;30.11;36932.67
1739991305.183;400;29.38;36317.20
1739991305.232;400;29.38;36317.20
1739991305.284;400;30.00;36840.67
1739991305.334;400;30.00;36840.67
1739991305.384;400;30.00;36840.67
1739991305.434;400;30.23;37036.80
1739991305.484;400;30.23;37036.80
1739991305.534;400;32.17;38681.60
1739991305.583;400;31.64;38233.13
1739991305.634;400;31.64;38233.13
1739991305.684;400;33.23;39579.73
1739991305.734;400;33.23;39579.73
1739991305.784;400;33.23;39579.73
1739991305.834;400;28.53;35596.27
1739991305.884;400;28.53;35596.27
1739991305.934;400;28.53;35596.27
1739991305.984;400;30.40;37180.27
1739991306.034;400;32.08;38606.00
1739991306.084;400;32.08;38606.00
1739991306.134;400;33.55;39851.46
1739991306.184;400;30.32;37115.73
1739991306.234;400;30.32;37115.73
1739991306.284;400;29.87;36727.46
1739991306.334;400;29.25;36203.73
1739991306.385;400;29.25;36203.73
1739991306.434;400;27.80;34974.54
1739991306.484;400;27.47;34693.07
1739991306.534;400;27.47;34693.07
1739991306.584;400;27.59;34800.00
1739991306.635;400;27.59;34800.00
1739991306.684;400;28.30;35398.13
1739991306.734;400;31.06;37736.27
1739991306.784;400;31.06;37736.27
1739991306.834;400;29.54;36448.54
1739991306.884;400;27.74;34919.20
1739991306.934;400;27.74;34919.20
1739991306.984;400;27.99;35136.00
1739991307.034;400;29.73;36614.93
1739991307.084;400;29.73;36614.93
1739991307.135;400;28.78;35805.07
1739991307.184;400;28.78;35805.07
1739991307.234;400;28.78;35805.07
1739991307.284;400;28.34;35429.07
1739991307.334;400;28.34;35429.07
1739991307.434;400;30.81;37531.60
1739991307.485;400;30.81;37531.60
1739991307.535;400;29.62;36517.07
1739991307.585;400;29.45;36375.13
1739991307.635;400;29.45;36375.13
1739991307.685;400;29.26;36216.67
1739991307.736;400;29.26;36216.67
1739991307.786;400;28.35;35445.07
1739991307.836;400;29.99;36831.60
1739991307.886;400;29.99;36831.60
1739991307.987;400;29.77;36646.93
1739991308.037;400;29.77;36646.93
1739991308.086;400;29.57;36480.13
1739991308.138;400;29.57;36480.13
1739991308.187;400;29.57;36480.13
1739991308.239;400;28.80;35819.20
1739991308.289;400;28.80;35819.20
1739991308.339;400;29.61;36510.27
1739991308.390;400;32.30;38794.93
1739991308.439;400;32.30;38794.93
1739991308.640;400;28.51;35572.54
1739991308.690;400;28.51;35572.54
1739991308.740;400;28.51;35572.54
1739991308.791;400;28.76;35786.40
1739991308.841;400;28.76;35786.40
1739991308.890;400;27.46;34685.33
1739991308.941;400;28.96;35956.54
1739991308.991;400;28.96;35956.54
1739991309.041;400;27.53;34744.40
1739991309.091;400;30.45;37226.40
1739991309.140;400;30.45;37226.40
1739991309.191;400;29.37;36306.54
1739991309.240;400;29.37;36306.54
1739991309.291;400;29.37;36306.54
1739991319.388;400;30.35;37135.20
1739991319.438;400;30.35;37135.20
1739991319.488;400;29.56;36471.07
1739991319.538;400;29.56;36471.07
1739991319.588;400;28.61;35662.40
1739991319.639;400;30.55;37309.07
1739991319.688;400;30.55;37309.07
1739991319.739;400;30.94;37637.20
1739991319.789;400;30.94;37637.20
1739991319.840;400;30.94;37637.20
1739991319.889;400;28.79;35810.67
1739991319.940;400;28.79;35810.67
1739991319.989;400;31.19;37851.20
1739991320.040;400;30.05;36879.60
1739991320.090;400;30.05;36879.60
1739991320.140;400;32.23;38732.54
1739991320.190;400;32.23;38732.54
1739991320.240;400;32.29;38782.13
1739991320.290;400;30.56;37316.13
1739991320.340;400;30.56;37316.13
1739991320.390;400;32.32;38805.87
1739991320.440;400;32.32;38805.87
1739991320.490;400;28.08;35209.80
1739991320.540;400;30.11;36934.73
1739991320.590;400;30.11;36934.73
1739991320.691;400;28.07;35204.54
1739991320.741;400;28.07;35204.54
1739991320.791;400;30.20;37012.27
1739991320.842;400;30.20;37012.27
1739991320.891;400;32.07;38598.13
1739991320.941;400;32.07;38598.13
1739991320.991;400;28.26;35368.00
1739991321.041;400;31.26;37908.40
1739991321.091;400;31.26;37908.40
1739991321.141;400;28.91;35917.73
1739991321.191;400;28.91;35917.73
1739991321.241;400;28.91;35917.73
1739991321.291;400;28.18;35294.67
1739991321.341;400;28.18;35294.67
1739991321.391;400;31.24;37896.27
1739991321.441;400;31.24;37896.27
1739991321.491;400;29.77;36644.00
1739991321.542;400;29.77;36644.00
1739991321.592;400;29.77;36644.00
1739991321.643;400;29.95;36800.00
1739991321.692;400;29.95;36800.00
1739991321.743;400;29.95;36800.00
1739991321.793;400;30.12;36940.27
1739991321.844;400;30.12;36940.27
1739991321.893;400;29.84;36706.13
1739991321.944;400;29.84;36706.13
1739991321.993;400;29.29;36235.87
1739991322.043;400;29.29;36235.87
1739991322.094;400;29.29;36235.87
1739991322.144;400;30.88;37585.07
1739991322.194;400;30.88;37585.07
1739991322.245;400;29.16;36130.67
1739991322.295;400;29.16;36130.67
1739991322.344;400;29.16;36130.67
1739991322.395;400;29.33;36271.60
1739991322.444;400;29.33;36271.60
1739991322.494;400;27.95;35100.54
1739991322.544;400;27.95;35100.54
1739991322.594;400;27.56;34768.00
1739991322.644;400;28.43;35512.00
1739991322.695;400;28.43;35512.00
1739991322.745;400;32.25;38753.60
1739991322.795;400;32.25;38753.60
1739991322.845;400;32.25;38753.60
1739991322.895;400;27.89;35050.13
1739991322.945;400;27.89;35050.13
1739991322.995;400;28.98;35976.00
1739991323.045;400;27.48;34706.40
1739991323.095;400;27.48;34706.40
1739991323.146;400;28.84;35853.20
1739991323.195;400;28.84;35853.20
1739991323.396;400;30.69;37427.07
1739991323.445;400;30.69;37427.07
1739991323.495;400;32.39;38872.27
1739991323.545;400;32.39;38872.27
1739991323.595;400;27.59;34795.73
1739991323.645;400;30.60;37353.60
1739991323.695;400;30.60;37353.60
1739991323.745;400;29.57;36478.93
1739991700.908;118;10.00;35622.13
1739991700.958;118;10.00;35622.13
1739991701.008;127;10.00;37502.54
1739991701.058;117;10.00;35377.60
1739991701.108;117;10.00;35377.60
1739991701.158;128;10.00;37589.87
1739991701.208;116;10.00;35354.40
1739991701.258;116;10.00;35354.40
1739991701.308;123;10.00;36725.73
1739991701.359;126;10.00;37199.33
1739991701.408;126;10.00;37199.33
1739991701.458;130;10.00;37961.27
1739991701.508;130;10.00;37961.27
1739991701.559;130;10.00;37961.27
1739991701.609;129;10.00;37800.54
1739991701.659;129;10.00;37800.54
1739991701.859;129;10.00;37852.60
1739991701.909;129;10.00;37852.60
1739991701.959;129;10.00;37852.60
1739991702.009;116;10.00;35325.33
1739991702.059;116;10.00;35325.33
1739991702.109;123;10.00;36626.67
1739991702.159;127;10.00;37440.54
1739991702.209;127;10.00;37440.54
1739991702.260;127;10.00;37440.54
1739991702.409;117;10.00;35452.40
1739991702.459;122;10.00;36390.00
1739991702.510;122;10.00;36390.00
1739991702.559;133;10.00;38607.33
1739991702.610;135;10.00;39061.07
1739991702.660;135;10.00;39061.07
1739991702.709;121;10.00;36295.20
1739991702.760;121;10.00;36295.20
1739991702.810;121;10.00;36295.20
1739991702.860;115;10.00;35092.80
1739991702.909;115;10.00;35092.80
1739991702.960;115;10.00;35092.80
1739991703.010;120;10.00;35963.67
1739991703.060;120;10.00;35963.67
1739991703.110;124;10.00;36759.46
1739991703.160;124;10.00;36759.46
1739991703.209;124;10.00;36759.46
1739991703.260;122;10.00;36435.46
1739991703.310;122;10.00;36435.46
1739991703.361;122;10.00;36435.46
1739991703.410;119;10.00;35909.60
1739991703.460;119;10.00;35909.60
1739991703.511;119;10.00;35909.60
1739991703.561;121;10.00;36326.93
1739991703.610;121;10.00;36326.93
1739991703.660;119;10.00;35828.00
1739991703.710;124;10.00;36857.07
1739991703.761;124;10.00;36857.07
1739991703.810;128;10.00;37578.93
1739991703.861;128;10.00;37578.93
1739991703.910;128;10.00;37578.93
1739991703.961;126;10.00;37270.67
1739991704.011;126;10.00;37270.67
1739991704.062;120;10.00;36127.60
1739991704.111;118;10.00;35724.27
1739991704.161;118;10.00;35724.27
1739991704.211;123;10.00;36746.13
1739991704.261;119;10.00;35952.80
1739991704.311;119;10.00;35952.80
1739991704.361;129;10.00;37770.54
1739991704.411;118;10.00;35724.13
1739991704.462;118;10.00;35724.13
1739991704.511;125;10.00;37009.46
1739991704.562;125;10.00;37009.46
1739991704.611;125;10.00;37009.46
1739991704.662;128;10.00;37605.07
1739991704.712;128;10.00;37605.07
1739991704.763;128;10.00;37605.07
1739991704.812;115;10.00;34974.13
1739991704.862;115;10.00;34974.13
1739991704.913;115;10.00;35143.07
1739991704.962;127;10.00;37496.00
1739991705.013;127;10.00;37496.00
1739991705.062;115;10.00;35068.93
1739991705.112;115;10.00;35068.93
1739991705.162;115;10.00;35068.93
1739991705.213;123;10.00;36587.46
1739991705.262;123;10.00;36587.46
1739991705.312;117;10.00;35534.40
1739991705.362;113;10.00;34672.54
1739991705.413;113;10.00;34672.54
1739991705.462;117;10.00;35499.73
1739991705.513;117;10.00;35499.73
1739991705.563;116;10.00;35280.27
1739991705.612;113;10.00;34704.67
1739991705.662;113;10.00;34704.67
1739991705.713;122;10.00;36494.40
1739991715.629;114;10.00;34926.13
1739991715.679;114;10.00;34926.13
1739991715.729;114;10.00;34926.13
1739991715.779;114;10.00;34875.20
1739991715.829;114;10.00;34875.20
1739991715.879;118;10.00;35653.33
1739991715.928;117;10.00;35416.27
1739991715.979;117;10.00;35416.27
1739991716.029;119;10.00;35786.00
1739991716.079;119;10.00;35786.00
1739991716.129;119;10.00;35786.00
1739991716.179;119;10.00;35951.46
1739991716.229;119;10.00;35951.46
1739991716.279;131;10.00;38308.80
1739991716.329;134;10.00;38914.67
1739991716.379;134;10.00;38914.67
1739991716.579;123;10.00;36729.07
1739991716.629;123;10.00;36729.07
1739991716.678;123;10.00;36729.07
1739991716.729;123;10.00;36697.60
1739991716.779;123;10.00;36697.60
1739991716.828;129;10.00;37774.13
1739991716.879;124;10.00;36943.73
1739991716.929;124;10.00;36943.73
1739991716.979;128;10.00;37674.80
1739991717.029;128;10.00;37674.80
1739991717.079;128;10.00;37674.80
1739991717.129;124;10.00;36869.73
1739991717.179;124;10.00;36869.73
1739991717.229;121;10.00;36213.87
1739991717.279;127;10.00;37414.80
1739991717.329;127;10.00;37414.80
1739991717.380;122;10.00;36435.73
1739991717.436;137;10.00;39357.07
1739991717.480;137;10.00;39357.07
1739991717.530;123;10.00;36687.46
1739991717.580;123;10.00;36687.46
1739991717.630;123;10.00;36687.46
1739991717.680;119;10.00;35918.27
1739991717.730;119;10.00;35918.27
1739991717.781;119;10.00;35918.27
1739991717.831;137;10.00;39528.67
1739991717.881;137;10.00;39528.67
1739991717.931;130;10.00;38108.80
1739991717.980;123;10.00;36655.20
1739991718.030;123;10.00;36655.20
1739991718.081;120;10.00;36099.60
1739991718.130;123;10.00;36648.33
1739991718.181;123;10.00;36648.33
1739991718.331;124;10.00;36844.27
1739991718.381;121;10.00;36250.40
1739991718.431;121;10.00;36250.40
1739991718.481;124;10.00;36761.33
1739991718.531;125;10.00;36960.27
1739991718.581;125;10.00;36960.27
1739991718.630;129;10.00;37884.93
1739991718.681;119;10.00;35772.80
1739991718.730;119;10.00;35772.80
1739991718.781;118;10.00;35591.20
1739991718.831;127;10.00;37529.33
1739991718.881;127;10.00;37529.33
1739991718.931;121;10.00;36175.46
1739991718.981;121;10.00;36175.46
1739991719.031;121;10.00;36175.46
1739991719.081;130;10.00;37983.73
1739991719.131;130;10.00;37983.73
1739991719.182;130;10.00;37983.73
1739991719.232;128;10.00;37606.27
1739991719.282;128;10.00;37606.27
1739991719.333;134;10.00;38834.54
1739991719.382;134;10.00;38834.54
1739991719.432;134;10.00;38834.54
1739991719.483;129;10.00;37877.87
1739991719.533;129;10.00;37877.87
1739991719.582;129;10.00;37877.87
1739991719.632;125;10.00;37065.87
1739991719.683;125;10.00;37065.87
1739991719.733;125;10.00;37065.87
1739991719.783;117;10.00;35502.54
1739991719.833;117;10.00;35502.54
1739991719.883;119;10.00;35921.20
1739991719.933;134;10.00;38761.07
1739991719.984;134;10.00;38761.07
1739991720.034;130;10.00;37957.60
1739991720.084;130;10.00;37957.60
1739991720.134;130;10.00;37957.60
1739991720.184;118;10.00;35560.13
1739991720.234;118;10.00;35560.13
1739991720.284;118;10.00;35701.87
1739991720.334;121;10.00;36155.73
1739991720.384;121;10.00;36155.73
1739991720.434;133;10.00;38659.73
1739991720.484;133;10.00;38659.73
1739991720.535;133;10.00;38659.73
1739991720.590;121;10.00;36166.67
1739991720.638;121;10.00;36166.67
1739991720.688;121;10.00;36166.67
1739991720.738;127;10.00;37457.07
1739991720.787;127;10.00;37457.07
1739991720.838;132;10.00;38500.80
1739991730.927;126;10.00;37249.20
1739991730.978;126;10.00;37249.20
1739991731.027;126;10.00;37249.20
1739991731.078;131;10.00;38190.80
1739991731.128;131;10.00;38190.80
1739991731.177;125;10.00;37134.67
1739991731.228;117;10.00;35404.80
1739991731.278;117;10.00;35404.80
1739991731.327;127;10.00;37454.67
1739991731.378;127;10.00;37489.07
1739991731.427;127;10.00;37489.07
1739991731.478;130;10.00;37988.80
1739991731.527;121;10.00;36223.20
1739991731.578;121;10.00;36223.20
1739991731.628;120;10.00;36041.07
1739991731.678;119;10.00;35903.46
1739991731.727;119;10.00;35903.46
1739991731.778;126;10.00;37197.60
1739991731.828;126;10.00;37197.60
1739991731.878;126;10.00;37197.60
1739991731.928;134;10.00;38934.93
1739991731.978;134;10.00;38934.93
1739991732.028;119;10.00;35925.07
1739991732.078;123;10.00;36737.60
1739991732.128;123;10.00;36737.60
1739991732.179;132;10.00;38464.67
1739991732.229;132;10.00;38464.67
1739991732.279;132;10.00;38464.67
1739991732.328;125;10.00;37074.67
1739991732.379;125;10.00;37074.67
1739991732.429;131;10.00;38162.67
1739991732.479;125;10.00;36983.20
1739991732.529;125;10.00;36983.20
1739991732.579;131;10.00;38330.54
1739991732.629;120;10.00;36077.33
1739991732.680;120;10.00;36077.33
1739991732.730;127;10.00;37361.60
1739991732.779;124;10.00;36874.80
1739991732.829;124;10.00;36874.80
1739991732.880;135;10.00;39044.67
1739991732.930;135;10.00;39044.67
1739991732.980;135;10.00;39044.67
1739991733.029;122;10.00;36486.67
1739991733.079;122;10.00;36486.67
1739991733.129;128;10.00;37594.40
1739991733.180;116;10.00;35256.54
1739991733.229;116;10.00;35256.54
1739991733.280;130;10.00;37988.00
1739991733.330;130;10.00;37988.00
1739991733.380;134;10.00;38869.60
1739991733.430;125;10.00;37135.46
1739991733.479;125;10.00;37135.46
1739991733.529;128;10.00;37609.60
1739991733.579;129;10.00;37886.40
1739991733.630;129;10.00;37886.40
1739991733.680;128;10.00;37730.27
1739991733.730;124;10.00;36786.80
1739991733.779;124;10.00;36786.80
1739991733.830;117;10.00;35502.13
1739991733.880;117;10.00;35502.13
1739991733.930;117;10.00;35502.13
1739991733.979;124;10.00;36828.54
1739991734.030;124;10.00;36828.54
1739991734.080;131;10.00;38148.80
1739991734.130;139;10.00;39835.46
1739991734.181;139;10.00;39835.46
1739991734.231;124;10.00;36894.13
1739991734.280;124;10.00;36894.13
1739991734.331;124;10.00;36894.13
1739991734.380;118;10.00;35704.27
1739991734.430;118;10.00;35704.27
1739991734.480;120;10.00;35983.33
1739991734.531;130;10.00;38068.54
1739991734.580;130;10.00;38068.54
1739991734.630;121;10.00;36317.07
1739991734.680;121;10.00;36317.07
1739991734.730;121;10.00;36317.07
1739991734.781;118;10.00;35600.93
1739991734.831;118;10.00;35600.93
1739991734.881;126;10.00;37300.40
1739991734.930;130;10.00;38126.93
1739991734.980;130;10.00;38126.93
1739991735.030;137;10.00;39507.73
1739991735.080;126;10.00;37204.80
1739991735.130;126;10.00;37204.80
1739991735.180;113;10.00;34733.60
1739991735.231;113;10.00;34733.60
1739991735.280;113;10.00;34733.60
1739991735.330;118;10.00;35628.54
1739991735.380;118;10.00;35628.54
1739991735.431;118;10.00;35628.54
1739991735.480;130;10.00;38035.73
1739991735.530;130;10.00;38035.73
1739991735.580;129;10.00;37937.87
1739991735.631;117;10.00;35417.27
1739991735.680;117;10.00;35417.27
1739991735.731;121;10.00;36248.00
1739991735.782;121;10.00;36204.00
1739991735.831;121;10.00;36204.00
1739991841.401;300;27.79;34965.33
1739991841.451;300;27.79;34965.33
1739991841.501;300;28.97;35963.87
1739991841.551;300;30.00;36842.54
1739991841.601;300;30.00;36842.54
1739991841.651;300;30.00;36842.54
1739991841.701;300;30.41;37191.73
1739991841.751;300;30.41;37191.73
1739991841.801;300;29.84;36705.60
1739991841.851;300;29.47;36390.80
1739991841.901;300;29.47;36390.80
1739991841.951;300;30.63;37374.07
1739991842.001;300;27.71;34900.27
1739991842.051;300;27.71;34900.27
1739991842.101;300;30.83;37542.27
1739991842.152;300;30.83;37542.27
1739991842.202;300;30.83;37542.27
1739991842.251;300;29.71;36592.40
1739991842.302;300;29.71;36592.40
1739991842.352;300;29.71;36592.40
1739991842.402;300;29.51;36424.00
1739991842.451;300;29.51;36424.00
1739991842.502;300;30.94;37636.80
1739991842.552;300;30.94;37636.80
1739991842.601;300;30.94;37636.80
1739991842.652;300;30.80;37518.13
1739991842.702;300;29.99;36828.67
1739991842.752;300;29.99;36828.67
1739991842.802;300;30.76;37483.20
1739991842.852;300;30.76;37483.20
1739991842.903;300;30.76;37483.20
1739991842.953;300;32.42;38897.27
1739991843.002;300;32.42;38897.27
1739991843.052;300;32.42;38897.27
1739991843.102;300;28.84;35854.00
1739991843.153;300;28.84;35854.00
1739991843.202;300;30.72;37455.07
1739991843.253;300;30.55;37310.13
1739991843.302;300;30.55;37310.13
1739991843.352;300;30.13;36952.54
1739991843.402;300;30.46;37230.13
1739991843.452;300;30.46;37230.13
1739991843.503;300;30.06;36894.40
1739991843.552;300;30.06;36894.40
1739991843.603;300;28.86;35873.73
1739991843.653;300;30.41;37187.46
1739991843.702;300;30.41;37187.46
1739991843.752;300;30.17;36987.73
1739991843.802;300;27.65;34850.13
1739991843.853;300;27.65;34850.13
1739991843.902;300;29.24;36196.27
1739991843.953;300;29.24;36196.27
1739991844.002;300;29.24;36196.27
1739991844.053;300;30.42;37194.54
1739991844.103;300;30.41;37185.87
1739991844.154;300;30.41;37185.87
1739991844.203;300;28.39;35474.67
1739991844.254;300;28.39;35474.67
1739991844.303;300;30.99;37680.27
1739991844.353;300;30.99;37680.27
1739991844.403;300;30.99;37680.27
1739991844.604;300;30.17;36989.20
1739991844.655;300;30.17;36989.20
1739991844.705;300;29.47;36387.73
1739991844.755;300;28.59;35644.67
1739991844.805;300;28.59;35644.67
1739991844.857;300;29.08;36064.00
1739991844.906;300;28.44;35514.93
1739991844.955;300;28.44;35514.93
1739991845.006;300;28.78;35808.54
1739991845.056;300;28.78;35808.54
1739991845.106;300;28.78;35808.54
1739991845.156;300;28.90;35906.13
1739991845.205;300;28.90;35906.13
1739991845.256;300;28.90;35906.13
1739991845.306;300;29.25;36206.40
1739991845.356;300;29.25;36206.40
1739991845.405;300;29.66;36549.13
1739991845.556;300;27.44;34670.27
1739991845.606;300;27.44;34670.27
1739991845.656;300;27.44;34670.27
1739991845.706;300;30.48;37248.13
1739991845.756;300;30.48;37248.13
1739991845.805;300;30.11;36931.07
1739991845.856;300;28.75;35777.87
1739991845.906;300;28.75;35777.87
1739991845.956;300;29.91;36767.73
1739991846.006;300;29.19;36156.27
1739991846.056;300;29.19;36156.27
1739991846.106;300;29.04;36030.27
1739991846.156;300;29.04;36030.27
1739991846.206;300;29.04;36030.27
1739991846.256;300;31.20;37856.00
1739991846.306;300;31.20;37856.00
1739991846.356;300;31.20;37856.00
1739991856.624;300;27.98;35126.13
1739991856.674;300;27.98;35126.13
1739991856.725;300;27.78;34956.27
1739991856.775;300;31.53;38137.07
1739991856.825;300;31.53;38137.07
1739991856.875;300;31.62;38211.46
1739991856.925;300;31.91;38460.27
1739991856.974;300;31.91;38460.27
1739991857.025;300;28.31;35403.40
1739991857.075;300;28.31;35403.40
1739991857.125;300;28.31;35403.40
1739991857.275;300;28.55;35607.60
1739991857.325;300;28.55;35614.40
1739991857.376;300;28.55;35614.40
1739991857.425;300;31.79;38357.60
1739991857.475;300;31.79;38357.60
1739991857.525;300;31.79;38357.60
1739991857.575;300;32.26;38762.40
1739991857.625;300;32.26;38762.40
1739991857.675;300;32.26;38762.40
1739991857.725;300;29.69;36575.20
1739991857.776;300;29.69;36575.20
1739991857.825;300;30.07;36900.54
1739991857.875;300;27.96;35107.20
1739991857.925;300;27.96;35107.20
1739991857.975;300;29.14;36113.60
1739991858.025;300;29.14;36113.60
1739991858.076;300;29.14;36113.60
1739991858.126;300;29.25;36207.20
1739991858.175;300;29.25;36207.20
1739991858.226;300;31.31;37954.40
1739991858.275;300;31.31;37954.40
1739991858.325;300;31.31;37954.40
1739991858.375;300;29.94;36789.33
1739991858.426;300;29.94;36789.33
1739991858.476;300;31.21;37871.73
1739991858.525;300;30.47;37241.73
1739991858.576;300;30.47;37241.73
1739991858.626;300;30.16;36972.80
1739991858.675;300;29.79;36663.87
1739991858.726;300;29.79;36663.87
1739991858.775;300;27.94;35093.33
1739991858.826;300;27.94;35093.33
1739991858.876;300;27.94;35093.33
1739991858.926;300;30.38;37163.73
1739991858.976;300;30.38;37163.73
1739991859.027;300;29.97;36813.07
1739991859.076;300;29.97;36813.07
1739991859.126;300;29.97;36813.07
1739991859.176;300;27.75;34934.13
1739991859.226;300;27.75;34934.13
1739991859.276;300;30.27;37066.93
1739991859.326;300;30.52;37280.27
1739991859.376;300;30.52;37280.27
1739991859.427;300;31.81;38376.40
1739991859.476;300;31.20;37855.20
1739991859.527;300;31.20;37855.20
1739991859.576;300;28.73;35765.20
1739991859.626;300;28.73;35765.20
1739991859.677;300;28.73;35765.20
1739991859.726;300;28.24;35346.93
1739991859.776;300;28.24;35346.93
1739991859.826;300;28.75;35784.00
1739991859.877;300;28.75;35784.00
1739991859.926;300;28.75;35784.00
1739991859.977;300;29.92;36768.93
1739991860.028;300;29.92;36768.93
1739991860.078;300;29.92;36768.93
1739991860.128;300;33.57;39872.54
1739991860.178;300;33.57;39872.54
1739991860.228;300;30.58;37331.20
1739991860.278;300;30.61;37354.40
1739991860.329;300;30.61;37354.40
1739991860.379;300;28.52;35584.40
1739991860.429;300;27.76;34942.93
1739991860.479;300;27.76;34942.93
1739991860.529;300;28.43;35512.80
1739991860.579;300;29.98;36827.46
1739991860.629;300;29.98;36827.46
1739991860.680;300;32.21;38713.07
1739991860.729;300;30.29;37082.93
1739991860.779;300;30.29;37082.93
1739991860.829;300;28.36;35446.27
1739991860.879;300;28.36;35446.27
1739991860.929;300;28.36;35446.27
1739991860.978;300;29.55;36455.87
1739991861.030;300;29.55;36455.87
1739991861.080;300;29.55;36455.87
1739991861.130;300;28.49;35558.93
1739991861.180;300;28.49;35558.93
1739991861.229;300;28.89;35894.93
1739991861.280;300;28.89;35894.93
1739991861.330;300;28.89;35894.93
1739991870.735;300;28.45;35530.00
1739991870.786;300;28.45;35530.00
1739991870.835;300;30.80;37519.20
1739991870.886;300;29.31;36252.67
1739991870.936;300;29.31;36252.67
1739991870.986;300;31.39;38019.60
1739991871.036;300;31.39;38019.60
1739991871.086;300;32.12;38639.33
1739991871.136;300;32.12;38639.33
1739991871.186;300;32.12;38639.33
1739991871.236;300;29.62;36520.40
1739991871.286;300;29.62;36520.40
1739991871.336;300;31.35;37983.20
1739991871.387;300;31.35;37983.20
1739991871.436;300;31.35;37983.20
1739991871.486;300;32.10;38626.93
1739991871.536;300;32.10;38626.93
1739991871.586;300;28.65;35699.33
1739991871.636;300;29.86;36726.40
1739991871.686;300;29.86;36726.40
1739991871.737;300;28.60;35651.20
1739991871.787;300;28.60;35651.20
1739991871.837;300;31.46;38076.87
1739991871.887;300;31.46;38076.87
1739991871.938;300;31.86;38423.46
1739991871.987;300;33.47;39781.46
1739991872.037;300;33.47;39781.46
1739991872.087;300;30.22;37028.13
1739991872.138;300;29.76;36636.54
1739991872.187;300;29.76;36636.54
1739991872.238;300;30.87;37581.67
1739991872.288;300;30.87;37581.67
1739991872.337;300;30.12;36944.54
1739991872.387;300;29.23;36186.40
1739991872.437;300;29.23;36186.40
1739991872.487;300;30.68;37421.33
1739991872.537;300;30.68;37421.33
1739991872.587;300;30.68;37421.33
1739991872.637;300;31.02;37704.00
1739991872.687;300;31.02;37704.00
1739991872.738;300;31.50;38113.07
1739991872.787;300;28.90;35910.87
1739991872.838;300;28.90;35910.87
1739991872.887;300;29.14;36111.87
1739991872.938;300;29.14;36111.87
1739991872.988;300;29.02;36012.80
1739991873.038;300;28.08;35209.60
1739991873.087;300;28.08;35209.60
1739991873.138;300;31.76;38333.33
1739991873.188;300;31.76;38333.33
1739991873.238;300;28.77;35799.46
1739991873.288;300;28.77;35799.46
1739991873.338;300;28.77;35799.46
1739991873.387;300;31.37;38005.87
1739991873.437;300;31.37;38005.87
1739991873.487;300;29.06;36046.67
1739991873.538;300;29.06;36046.67
1739991873.588;300;29.06;36046.67
1739991873.638;300;29.86;36724.20
1739991873.687;300;29.86;36724.20
1739991873.738;300;27.91;35069.20
1739991873.788;300;27.91;35069.20
1739991873.838;300;28.61;35661.60
1739991873.888;300;29.07;36051.46
1739991873.938;300;29.07;36051.46
1739991873.988;300;29.66;36553.33
1739991874.038;300;28.58;35639.33
1739991874.088;300;28.58;35639.33
1739991874.138;300;30.05;36882.67
1739991874.188;300;30.05;36882.67
1739991874.288;300;28.02;35161.60
1739991874.338;300;28.02;35161.60
1739991874.388;300;28.10;35225.33
1739991874.438;300;28.10;35225.33
1739991874.488;300;28.14;35265.87
1739991874.538;300;28.14;35265.87
1739991874.588;300;28.14;35265.87
1739991874.638;300;29.42;36348.93
1739991874.688;300;29.42;36348.93
1739991874.738;300;29.42;36351.20
1739991874.788;300;29.42;36351.20
1739991874.838;300;28.37;35456.67
1739991874.888;300;28.85;35862.40
1739991874.938;300;28.85;35862.40
1739991874.988;300;29.52;36430.13
1739991875.038;300;29.52;36430.13
1739991875.088;300;28.68;35720.40
1739991875.138;300;27.74;34922.13
1739991875.189;300;27.74;34922.13
1739991875.237;300;30.67;37410.40
1739991875.288;300;30.67;37410.40
1739991875.338;300;30.67;37410.40
1739991875.388;300;32.91;39314.40
1739991875.438;300;32.91;39314.40
1739991977.893;121;30.00;36279.73
1739991977.944;121;30.00;36279.73
1739991977.994;123;30.00;36553.33
1739991978.043;115;30.00;35109.20
1739991978.093;115;30.00;35109.20
1739991978.143;131;30.00;38210.67
1739991978.194;131;30.00;38210.67
1739991978.244;125;30.00;36991.60
1739991978.294;128;30.00;37634.13
1739991978.344;128;30.00;37634.13
1739991978.394;122;30.00;36474.67
1739991978.443;122;30.00;36474.67
1739991978.494;126;30.00;37301.87
1739991978.544;116;30.00;35198.13
1739991978.594;116;30.00;35198.13
1739991978.644;118;30.00;35627.20
1739991978.694;118;30.00;35627.20
1739991978.746;120;30.00;36130.80
1739991978.795;117;30.00;35536.40
1739991978.846;117;30.00;35536.40
1739991978.895;129;30.00;37914.67
1739991978.946;129;30.00;37914.67
1739991978.995;129;30.00;37914.67
1739991979.046;121;30.00;36185.60
1739991979.095;121;30.00;36185.60
1739991979.146;119;30.00;35931.60
1739991979.197;119;30.00;35931.60
1739991979.247;119;30.00;35931.60
1739991979.296;131;30.00;38208.00
1739991979.347;131;30.00;38208.00
1739991979.398;128;30.00;37662.40
1739991979.447;128;30.00;37662.40
1739991979.498;128;30.00;37662.40
1739991979.547;126;30.00;37313.33
1739991979.598;126;30.00;37313.33
1739991979.648;119;30.00;35863.46
1739991979.699;119;30.00;35863.46
1739991979.749;123;30.00;36666.67
1739991979.799;129;30.00;37753.33
1739991979.849;129;30.00;37753.33
1739991979.900;116;30.00;35319.20
1739991979.950;116;30.00;35319.20
1739991980.000;126;30.00;37224.80
1739991980.049;116;30.00;35327.33
1739991980.100;116;30.00;35327.33
1739991980.150;117;30.00;35502.00
1739991980.200;117;30.00;35502.00
1739991980.250;117;30.00;35502.00
1739991980.300;119;30.00;35856.40
1739991980.350;119;30.00;35856.40
1739991980.400;135;30.00;38968.00
1739991980.450;122;30.00;36362.67
1739991980.501;122;30.00;36362.67
1739991980.550;116;30.00;35242.93
1739991980.600;116;30.00;35242.93
1739991980.652;127;30.00;37534.33
1739991980.702;127;30.00;37534.33
1739991980.751;127;30.00;37534.33
1739991980.803;127;30.00;37353.07
1739991980.852;127;30.00;37353.07
1739991980.953;121;30.00;36280.54
1739991981.002;121;30.00;36280.54
1739991981.052;134;30.00;38934.93
1739991981.102;134;30.00;38934.93
1739991981.152;126;30.00;37283.60
1739991981.202;131;30.00;38232.13
1739991981.252;131;30.00;38232.13
1739991981.302;118;30.00;35732.27
1739991981.352;118;30.00;35732.27
1739991981.403;119;30.00;35893.60
1739991981.452;126;30.00;37218.13
1739991981.503;126;30.00;37218.13
1739991981.553;120;30.00;36011.87
1739991981.602;120;30.00;36011.87
1739991981.653;120;30.00;36011.87
1739991981.703;121;30.00;36265.87
1739991981.753;121;30.00;36265.87
1739991981.803;121;30.00;36265.87
1739991981.853;119;30.00;35786.40
1739991981.903;119;30.00;35786.40
1739991981.953;120;30.00;36045.07
1739991982.003;124;30.00;36827.07
1739991982.053;124;30.00;36827.07
1739991982.103;122;30.00;36356.60
1739991982.152;122;30.00;36356.60
1739991982.203;121;30.00;36306.07
1739991982.353;123;30.00;36647.73
1739991982.403;123;30.00;36647.73
1739991990.073;120;30.00;36083.73
1739991990.124;128;30.00;37590.93
1739991990.174;128;30.00;37590.93
1739991990.225;135;30.00;38956.54
1739991990.274;135;30.00;38956.54
1739991990.324;135;30.00;38956.54
1739991990.374;132;30.00;38537.73
1739991990.423;132;30.00;38537.73
1739991990.474;120;30.00;36070.60
1739991990.523;128;30.00;37701.20
1739991990.574;128;30.00;37701.20
1739991990.624;126;30.00;37333.00
1739991990.674;125;30.00;36988.60
1739991990.724;125;30.00;36988.60
1739991990.774;118;30.00;35754.93
1739991990.824;118;30.00;35754.93
1739991990.873;121;30.00;36170.93
1739991990.924;121;30.00;36170.93
1739991990.974;121;30.00;36351.46
1739991991.024;122;30.00;36475.60
1739991991.074;122;30.00;36475.60
1739991991.123;115;30.00;35064.00
1739991991.174;123;30.00;36708.27
1739991991.224;123;30.00;36708.27
1739991991.274;124;30.00;36939.40
1739991991.324;124;30.00;36939.40
1739991991.375;128;30.00;37577.60
1739991991.424;132;30.00;38371.13
1739991991.474;132;30.00;38371.13
1739991991.524;129;30.00;37755.73
1739991991.574;130;30.00;38038.13
1739991991.625;130;30.00;38038.13
1739991991.675;128;30.00;37651.46
1739991991.724;128;30.00;37651.46
1739991991.775;127;30.00;37378.93
1739991991.825;127;30.00;37378.93
1739991991.874;121;30.00;36220.54
1739991991.925;126;30.00;37152.00
1739991991.975;126;30.00;37152.00
1739991992.024;119;30.00;35820.54
1739991992.074;119;30.00;35820.54
1739991992.125;122;30.00;36363.46
1739991992.175;120;30.00;36148.27
1739991992.225;120;30.00;36148.27
1739991992.274;125;30.00;37110.54
1739991992.325;125;30.00;37110.54
1739991992.375;125;30.00;37110.54
1739991992.425;128;30.00;37589.33
1739991992.475;128;30.00;37589.33
1739991992.526;116;30.00;35314.00
1739991992.576;116;30.00;35243.46
1739991992.625;116;30.00;35243.46
1739991992.676;116;30.00;35346.80
1739991992.726;116;30.00;35346.80
1739991992.776;120;30.00;36154.67
1739991992.826;123;30.00;36673.33
1739991992.876;123;30.00;36673.33
1739991992.925;121;30.00;36173.87
1739991992.976;121;30.00;36173.87
1739991993.027;128;30.00;37675.46
1739991993.177;119;30.00;35893.33
1739991993.227;119;30.00;35893.33
1739991993.277;122;30.00;36422.54
1739991993.327;113;30.00;34619.73
1739991993.377;113;30.00;34619.73
1739991993.427;123;30.00;36655.80
1739991993.477;123;30.00;36655.80
1739991993.527;124;30.00;36838.60
1739991993.577;119;30.00;35819.20
1739991993.628;119;30.00;35819.20
1739991993.677;124;30.00;36841.87
1739991993.727;124;30.00;36841.87
1739991993.777;124;30.00;36841.87
1739991993.927;127;30.00;37463.87
1739991993.978;116;30.00;35203.93
1739991994.029;116;30.00;35203.93
1739991994.078;134;30.00;38846.27
1739991994.129;134;30.00;38846.27
1739991994.228;113;30.00;34752.40
1739991994.278;113;30.00;34752.40
1739991994.329;127;30.00;37395.20
1739991994.379;127;30.00;37395.20
1739991994.429;121;30.00;36222.13
1739991994.478;130;30.00;38032.93
1739991994.528;130;30.00;38032.93
1739991994.578;127;30.00;37461.07
1739991994.629;127;30.00;37461.07
1739991994.679;117;30.00;35526.40
1739991994.729;118;30.00;35644.80
1739991994.779;118;30.00;35644.80
1739991994.829;114;30.00;34918.07
1739991994.879;114;30.00;34918.07
1739991994.932;115;30.00;35047.93
1739991994.980;132;30.00;38516.67
1739991995.030;132;30.00;38516.67
1739991995.080;118;30.00;35604.00
1739991995.130;118;30.00;35604.00
1739991995.180;118;30.00;35604.00
1739991995.230;121;30.00;36253.60
1739991995.280;121;30.00;36253.60
1739991995.331;118;30.00;35561.33
1739991995.380;118;30.00;35561.33
1739991995.431;118;30.00;35561.33
1739991995.481;118;30.00;35744.13
1739991995.531;118;30.00;35744.13
1739991995.580;118;30.00;35635.00
1739991995.631;118;30.00;35635.00
1739991995.681;118;30.00;35635.00
1739991995.831;121;30.00;36176.27
1739991995.881;127;30.00;37512.13
1739991995.932;127;30.00;37512.13
1739991995.982;122;30.00;36486.13
1739991996.032;122;30.00;36486.13
1739991996.082;115;30.00;35118.40
1739991996.132;115;30.00;35118.40
1739991996.182;115;30.00;35118.40
1739991996.232;121;30.00;36325.87
1739991996.282;122;30.00;36525.87
1739991996.333;122;30.00;36525.87
1739992006.229;128;30.00;37640.67
1739992006.279;128;30.00;37640.67
1739992006.329;119;30.00;35827.73
1739992006.379;119;30.00;35827.73
1739992006.429;117;30.00;35457.87
1739992006.479;128;30.00;37692.27
1739992006.529;128;30.00;37692.27
1739992006.579;124;30.00;36888.80
1739992006.629;124;30.00;36888.80
1739992006.679;124;30.00;36888.80
1739992006.729;123;30.00;36677.33
1739992006.779;123;30.00;36677.33
1739992006.830;124;30.00;36787.20
1739992006.879;118;30.00;35590.40
1739992006.930;118;30.00;35590.40
1739992007.080;117;30.00;35514.27
1739992007.130;117;30.00;35514.27
1739992007.180;117;30.00;35514.27
1739992007.230;117;30.00;35458.67
1739992007.280;117;30.00;35458.67
1739992007.331;122;30.00;36387.20
1739992007.381;125;30.00;37091.73
1739992007.431;125;30.00;37091.73
1739992007.480;117;30.00;35556.80
1739992007.531;117;30.00;35556.80
1739992007.582;114;30.00;34882.67
1739992007.632;114;30.00;34869.60
1739992007.683;114;30.00;34869.60
1739992007.732;118;30.00;35714.93
1739992007.782;118;30.00;35714.93
1739992007.833;118;30.00;35714.93
1739992007.882;119;30.00;35781.07
1739992007.933;119;30.00;35781.07
1739992007.982;118;30.00;35732.46
1739992008.033;118;30.00;35732.46
1739992008.082;122;30.00;36497.33
1739992008.133;123;30.00;36737.07
1739992008.183;123;30.00;36737.07
1739992008.233;128;30.00;37568.54
1739992008.283;128;30.00;37568.54
1739992008.334;131;30.00;38329.33
1739992008.384;119;30.00;35843.73
1739992008.434;119;30.00;35843.73
1739992008.483;123;30.00;36608.00
1739992008.534;123;30.00;36608.00
1739992008.584;124;30.00;36929.27
1739992008.634;124;30.00;36929.27
1739992008.686;124;30.00;36929.27
1739992008.734;128;30.00;37617.07
1739992008.784;123;30.00;36648.67
1739992008.834;123;30.00;36648.67
1739992008.884;121;30.00;36161.07
1739992008.934;121;30.00;36161.07
1739992008.984;121;30.00;36315.73
1739992009.034;118;30.00;35574.67
1739992009.084;118;30.00;35574.67
1739992009.135;118;30.00;35694.46
1739992009.185;118;30.00;35694.46
1739992009.235;117;30.00;35421.60
1739992009.285;121;30.00;36332.67
1739992009.335;121;30.00;36332.67
1739992009.384;119;30.00;35797.07
1739992009.435;119;30.00;35797.07
1739992009.485;122;30.00;36504.80
1739992009.534;122;30.00;36504.80
1739992009.585;122;30.00;36504.80
1739992009.635;126;30.00;37287.33
1739992009.686;126;30.00;37287.33
1739992009.785;119;30.00;35953.87
1739992009.835;119;30.00;35953.87
1739992009.884;125;30.00;36977.33
1739992009.935;125;30.00;36977.33
1739992009.985;119;30.00;35946.80
1739992010.035;119;30.00;35946.80
1739992010.085;119;30.00;35946.80
1739992010.135;117;30.00;35519.46
1739992010.185;117;30.00;35519.46
1739992010.285;131;30.00;38156.80
1739992010.335;131;30.00;38156.80
1739992010.385;113;30.00;34604.40
1739992010.435;113;30.00;34604.40
1739992010.486;123;30.00;36723.60
1739992010.536;123;30.00;36723.60
1739992010.585;116;30.00;35177.33
1739992010.636;129;30.00;37818.40
1739992010.685;129;30.00;37818.40
1739992010.736;125;30.00;37015.20
1739992010.786;114;30.00;34797.20
1739992010.836;114;30.00;34797.20
1739992010.885;119;30.00;35778.40
1739992010.936;119;30.00;35778.40
1739992010.986;115;30.00;34992.67
1739992011.036;127;30.00;37457.60
1739992011.086;127;30.00;37457.60
1739992011.137;119;30.00;35870.40
1739992011.187;119;30.00;35870.40
1739992011.238;119;30.00;35873.33
1739992011.288;116;30.00;35217.07
1739992011.338;116;30.00;35217.07
1739992099.061;200;27.55;34764.33
1739992099.112;200;27.55;34764.33
1739992099.162;200;27.55;34764.33
1739992099.212;200;30.22;37031.20
1739992099.262;200;30.22;37031.20
1739992099.312;200;30.22;37031.20
1739992099.362;200;30.21;37016.13
1739992099.412;200;30.21;37016.13
1739992099.462;200;29.41;36340.27
1739992099.512;200;31.06;37736.54
1739992099.562;200;31.06;37736.54
1739992099.613;200;29.22;36177.60
1739992099.663;200;28.80;35819.46
1739992099.712;200;28.80;35819.46
1739992099.763;200;30.67;37406.13
1739992099.813;200;30.67;37406.13
1739992099.863;200;31.71;38293.46
1739992099.913;200;29.09;36068.73
1739992099.963;200;29.09;36068.73
1739992100.113;200;29.50;36417.07
1739992100.163;200;28.83;35846.93
1739992100.213;200;28.83;35846.93
1739992100.263;200;29.68;36571.46
1739992100.313;200;29.68;36571.46
1739992100.364;200;29.24;36195.46
1739992100.413;200;28.94;35944.00
1739992100.463;200;28.94;35944.00
1739992100.513;200;30.26;37061.73
1739992100.564;200;30.26;37061.73
1739992100.613;200;30.26;37061.73
1739992100.664;200;28.80;35824.80
1739992100.714;200;28.80;35824.80
1739992100.763;200;29.19;36150.67
1739992100.814;200;29.19;36150.67
1739992100.864;200;29.19;36150.67
1739992100.913;200;28.81;35831.60
1739992100.964;200;31.10;37772.00
1739992101.014;200;31.10;37772.00
1739992101.063;200;27.62;34824.67
1739992101.114;200;27.62;34824.67
1739992101.164;200;29.28;36230.80
1739992101.214;200;29.51;36428.00
1739992101.264;200;29.51;36428.00
1739992101.314;200;29.16;36127.13
1739992101.363;200;29.58;36488.20
1739992101.413;200;29.58;36488.20
1739992101.464;200;30.15;36968.27
1739992101.513;200;30.15;36968.27
1739992101.564;200;30.15;36968.27
1739992101.615;200;28.59;35640.80
1739992101.664;200;28.59;35640.80
1739992101.715;200;29.64;36532.93
1739992101.764;200;30.19;37000.80
1739992101.814;200;30.19;37000.80
1739992101.865;200;30.18;36993.60
1739992101.915;200;30.18;36993.60
1739992101.965;200;29.28;36230.07
1739992102.015;200;27.54;34754.67
1739992102.065;200;27.54;34754.67
1739992102.115;200;28.23;35340.54
1739992102.165;200;28.79;35813.07
1739992102.215;200;28.79;35813.07
1739992102.265;200;31.60;38195.20
1739992102.315;200;31.60;38195.20
1739992102.365;200;31.21;37864.80
1739992102.415;200;30.64;37387.46
1739992102.465;200;30.64;37387.46
1739992102.515;200;31.94;38485.33
1739992102.565;200;29.25;36201.87
1739992102.615;200;29.25;36201.87
1739992102.665;200;29.25;36201.87
1739992102.715;200;29.42;36346.93
1739992102.765;200;29.42;36346.93
1739992102.815;200;29.42;36346.93
1739992102.865;200;30.00;36843.93
1739992102.915;200;30.00;36843.93
1739992102.966;200;30.00;36843.93
1739992103.015;200;29.24;36198.54
1739992103.065;200;29.24;36198.54
1739992103.115;200;27.76;34938.80
1739992103.165;200;29.57;36479.07
1739992103.215;200;29.57;36479.07
1739992103.265;200;29.90;36759.87
1739992103.315;200;27.80;34972.27
1739992103.365;200;27.80;34972.27
1739992103.415;200;29.00;35992.80
1739992103.565;200;31.68;38265.07
1739992103.615;200;31.68;38265.07
1739992103.665;200;29.15;36123.20
1739992103.716;200;28.49;35561.33
1739992103.766;200;28.49;35561.33
1739992103.815;200;30.19;37003.20
1739992103.865;200;30.19;37003.20
1739992103.915;200;30.19;37003.20
1739992103.965;200;28.70;35741.07
1739992104.015;200;28.70;35741.07
1739992104.066;200;29.27;36220.00
1739992104.115;200;29.27;36220.00
1739992104.166;200;29.72;36599.46
1739992115.315;200;28.85;35867.60
1739992115.365;200;28.85;35867.60
1739992115.416;200;28.85;35867.60
1739992115.465;200;28.75;35778.40
1739992115.516;200;28.75;35778.40
1739992115.565;200;31.40;38028.40
1739992115.617;200;30.43;37201.73
1739992115.666;200;30.43;37201.73
1739992115.716;200;30.43;37201.73
1739992115.766;200;28.23;35338.40
1739992115.816;200;28.23;35338.40
1739992115.866;200;27.98;35126.13
1739992115.917;200;30.28;37074.40
1739992115.966;200;30.28;37074.40
1739992116.016;200;30.02;36854.13
1739992116.066;200;29.01;36004.67
1739992116.116;200;29.01;36004.67
1739992116.167;200;29.89;36743.73
1739992116.217;200;27.79;34965.46
1739992116.266;200;27.79;34965.46
1739992116.316;200;27.87;35036.40
1739992116.366;200;29.33;36269.60
1739992116.416;200;29.33;36269.60
1739992116.466;200;30.16;36980.73
1739992116.517;200;28.18;35293.87
1739992116.566;200;28.18;35293.87
1739992116.617;200;30.60;37353.60
1739992116.667;200;30.60;37353.60
1739992116.716;200;30.60;37353.60
1739992116.767;200;27.92;35079.60
1739992116.817;200;27.92;35079.60
1739992116.867;200;27.78;34958.67
1739992116.917;200;29.29;36241.33
1739992116.967;200;29.29;36241.33
1739992117.017;200;28.72;35751.07
1739992117.067;200;28.67;35710.93
1739992117.117;200;28.67;35710.93
1739992117.168;200;30.55;37310.67
1739992117.218;200;30.55;37310.67
1739992117.267;200;27.97;35121.60
1739992117.318;200;30.05;36880.67
1739992117.368;200;30.05;36880.67
1739992117.418;200;28.96;35954.67
1739992117.468;200;28.96;35954.67
1739992117.519;200;28.96;35954.67
1739992117.568;200;28.40;35483.73
1739992117.619;200;28.40;35483.73
1739992117.669;200;29.50;36415.13
1739992117.719;200;29.50;36415.13
1739992117.769;200;29.50;36415.13
1739992117.819;200;29.40;36330.80
1739992117.868;200;29.40;36330.80
1739992117.919;200;29.41;36340.40
1739992117.969;200;28.51;35576.54
1739992118.018;200;28.51;35576.54
1739992118.068;200;28.14;35260.93
1739992118.119;200;28.14;35260.93
1739992118.168;200;30.14;36963.67
1739992118.219;200;28.04;35176.27
1739992118.268;200;28.04;35176.27
1739992118.319;200;28.04;35176.27
1739992118.468;200;31.71;38290.40
1739992118.519;200;28.32;35411.46
1739992118.569;200;28.32;35411.46
1739992118.620;200;28.47;35538.67
1739992118.670;200;28.47;35538.67
1739992118.719;200;28.47;35538.67
1739992118.770;200;28.10;35230.80
1739992118.820;200;28.10;35230.80
1739992118.869;200;28.55;35608.54
1739992118.920;200;28.55;35608.54
1739992118.970;200;28.43;35508.00
1739992119.020;200;31.83;38395.87
1739992119.070;200;31.83;38395.87
1739992119.120;200;29.37;36307.20
1739992119.170;200;28.46;35531.67
1739992119.220;200;28.46;35531.67
1739992119.872;200;29.10;36078.27
1739992119.922;200;28.32;35417.33
1739992119.972;200;27.54;34750.13
1739992130.484;200;27.51;34731.46
1739992130.533;200;28.26;35361.73
1739992130.585;200;28.26;35361.73
1739992130.634;200;28.68;35721.87
1739992130.683;200;28.41;35489.33
1739992130.734;200;28.41;35489.33
1739992130.784;200;29.07;36053.07
1739992130.834;200;29.07;36053.07
1739992130.884;200;29.02;36013.33
1739992130.934;200;29.02;36013.33
1739992130.984;200;29.02;36013.33
1739992131.034;200;28.55;35608.93
1739992131.084;200;28.55;35608.93
1739992131.135;200;28.49;35556.27
1739992131.185;200;28.25;35360.27
1739992131.235;200;28.25;35360.27
1739992131.285;200;29.71;36592.80
1739992131.335;200;29.71;36592.80
1739992131.385;200;29.94;36790.40
1739992131.435;200;29.12;36093.73
1739992131.484;200;29.12;36093.73
1739992131.535;200;29.62;36518.07
1739992131.585;200;28.32;35413.07
1739992131.635;200;28.32;35413.07
1739992131.685;200;30.26;37060.00
1739992131.736;200;30.26;37060.00
1739992131.786;200;29.33;36269.87
1739992131.836;200;27.52;34740.67
1739992131.885;200;27.52;34740.67
1739992131.935;200;27.89;35046.87
1739992131.986;200;30.55;37308.27
1739992132.036;200;30.55;37308.27
1739992132.086;200;29.10;36080.80
1739992132.136;200;29.10;36080.80
1739992132.186;200;29.10;36080.80
1739992132.236;200;28.54;35605.73
1739992132.286;200;28.54;35605.73
1739992132.336;200;28.54;35605.73
1739992132.386;200;29.15;36123.20
1739992132.436;200;29.15;36123.20
1739992132.486;200;30.14;36961.60
1739992132.536;200;30.14;36961.60
1739992132.586;200;30.14;36961.60
1739992132.637;200;30.44;37212.00
1739992132.687;200;30.44;37212.00
1739992132.736;200;30.44;37212.00
1739992132.787;200;31.36;37994.93
1739992132.837;200;31.36;37994.93
1739992132.886;200;30.77;37494.54
1739992132.937;200;30.47;37243.33
1739992132.987;200;30.47;37243.33
1739992133.037;200;29.54;36447.73
1739992133.086;200;29.54;36447.73
1739992133.137;200;29.54;36447.73
1739992133.187;200;28.46;35536.80
1739992133.237;200;28.46;35536.80
1739992133.286;200;28.83;35844.80
1739992133.337;200;29.94;36793.60
1739992133.386;200;29.94;36793.60
1739992133.437;200;29.02;36010.93
1739992133.486;200;29.02;36010.93
1739992133.537;200;29.02;36010.93
1739992133.688;200;30.42;37199.73
1739992133.738;200;30.42;37199.73
1739992133.788;200;28.92;35927.20
1739992133.839;200;28.23;35338.67
1739992133.888;200;28.23;35338.67
1739992133.939;200;28.23;35338.67
1739992133.988;200;30.98;37672.13
1739992134.039;200;30.98;37672.13
1739992134.239;200;29.04;36025.33
1739992134.289;200;29.04;36025.33
1739992134.339;200;27.66;34853.00
1739992134.390;200;30.75;37477.60
1739992134.439;200;30.75;37477.60
1739992134.489;200;29.30;36247.07
1739992134.539;200;29.30;36247.07
1739992134.589;200;27.89;35046.80
1739992134.640;200;28.02;35164.00
1739992134.689;200;28.02;35164.00
1739992134.739;200;27.80;34970.67
1739992134.789;200;32.30;38794.13
1739992134.840;200;32.30;38794.13
1739992134.890;200;30.02;36853.87
1739992134.939;200;30.02;36853.87
1739992134.989;200;30.02;36853.87
1739992135.039;200;27.93;35082.93
1739992135.090;200;27.93;35082.93
1739992135.140;200;27.44;34667.46
1739992135.190;200;27.79;34968.54
1739992135.239;200;27.79;34968.54
1739992135.289;200;27.52;34738.40
1739992135.340;200;27.52;34738.40
1739992135.390;200;27.52;34738.40
